patient,trial,SP,DP,ppg_fft_peaks_0,ppg_fft_peaks_heights_0,ppg_fft_peaks_neighbor_avgs_0,hr_0,p2p_0,ppg_max_neighbor_mean_0,ppg_min_0,vpg_max_neighbor_mean_0,vpg_min_0,apg_max_neighbor_mean_0,apg_min_0,ppg3_max_neighbor_mean_0,ppg3_min_0,ppg4_max_neighbor_mean_0,ppg4_min_0,ppg_histogram_up_0,ppg_histogram_up_1,ppg_histogram_up_2,ppg_histogram_up_3,ppg_histogram_up_4,ppg_histogram_down_0,ppg_histogram_down_1,ppg_histogram_down_2,ppg_histogram_down_3,ppg_histogram_down_4,ppg_histogram_down_5,ppg_histogram_down_6,ppg_histogram_down_7,ppg_histogram_down_8,ppg_histogram_down_9,ppg_max_0,vpg_histogram_up_0,vpg_histogram_up_1,vpg_histogram_up_2,vpg_histogram_up_3,vpg_histogram_up_4,vpg_histogram_down_0,vpg_histogram_down_1,vpg_histogram_down_2,vpg_histogram_down_3,vpg_histogram_down_4,vpg_histogram_down_5,vpg_histogram_down_6,vpg_histogram_down_7,vpg_histogram_down_8,vpg_histogram_down_9,vpg_max_0,apg_histogram_up_0,apg_histogram_up_1,apg_histogram_up_2,apg_histogram_up_3,apg_histogram_up_4,apg_histogram_down_0,apg_histogram_down_1,apg_histogram_down_2,apg_histogram_down_3,apg_histogram_down_4,apg_histogram_down_5,apg_histogram_down_6,apg_histogram_down_7,apg_histogram_down_8,apg_histogram_down_9,apg_max_0,ppg3_histogram_up_0,ppg3_histogram_up_1,ppg3_histogram_up_2,ppg3_histogram_up_3,ppg3_histogram_up_4,ppg3_histogram_down_0,ppg3_histogram_down_1,ppg3_histogram_down_2,ppg3_histogram_down_3,ppg3_histogram_down_4,ppg3_histogram_down_5,ppg3_histogram_down_6,ppg3_histogram_down_7,ppg3_histogram_down_8,ppg3_histogram_down_9,ppg3_max_0,ppg4_histogram_up_0,ppg4_histogram_up_1,ppg4_histogram_up_2,ppg4_histogram_up_3,ppg4_histogram_up_4,ppg4_histogram_down_0,ppg4_histogram_down_1,ppg4_histogram_down_2,ppg4_histogram_down_3,ppg4_histogram_down_4,ppg4_histogram_down_5,ppg4_histogram_down_6,ppg4_histogram_down_7,ppg4_histogram_down_8,ppg4_histogram_down_9,ppg4_max_0,usdc_0,usdc_1,usdc_2,usdc_3,usdc_4,usdc_5,dsdc_0,dsdc_1,dsdc_2,dsdc_3,dsdc_4,dsdc_5,dsdc_6,dsdc_7,dsdc_8,dsdc_9,dsdc_10,dsdc_11,dsdc_12,dsdc_13,dsdc_14,dsdc_15,dsdc_16,dsdc_17,dsdc_18,ppg_mean_cycles_match_peak_59,Tc,Ts,Td,Tsteepest,Steepest,TNegSteepest,NegSteepest,TdiaRise,DiaRise,SteepDiaRise,TSystoDiaRise,TdiaToEnd,Ratio,Ts_norm,Td_norm,Tsteepest_norm,TNegSteepest_norm,TdiaRise_norm,TSystoDiaRise_norm,TdiaToEnd_norm,SW25,SW25_norm,DW25,DW25_norm,SWaddDW25,SWaddDW25_norm,DWdivSW25,SW50,SW50_norm,DW50,DW50_norm,SWaddDW50,SWaddDW50_norm,DWdivSW50,SW75,SW75_norm,DW75,DW75_norm,SWaddDW75,SWaddDW75_norm,DWdivSW75,S1,S2,S3,S4,AUCsys,AUCdia,S1_norm,S2_norm,S3_norm,S4_norm,AUCsys_norm,AUCdia_norm,SQI_skew,SQI_kurtosis,apg_a,apg_b,apg_c,apg_d,apg_e,ppg_a,ppg_b,ppg_c,ppg_d,ppg_e,ratio_apg_b,ratio_apg_c,ratio_apg_d,ratio_apg_e,ratio_ppg_b,ratio_ppg_c,ratio_ppg_d,ratio_ppg_e,T_a,T_b,T_c,T_d,T_e,T_a_norm,T_b_norm,T_c_norm,T_d_norm,T_e_norm,T_peak_a,T_peak_b,T_peak_c,T_peak_d,T_peak_e,T_peak_a_norm,T_peak_b_norm,T_peak_c_norm,T_peak_d_norm,T_peak_e_norm,AI,bd,bcda,sdoo
X1004,X1004_0,133.34456564203941297819,69.97057946709217901571,32.00000000000000000000,0.02570537504364661663,0.01412371147274348211,50.00000000000000000000,150.00000000000000000000,0.89676409279536561936,7.00000000000000000000,0.74718533968713940485,24.00000000000000000000,0.75631653406873855516,18.00000000000000000000,0.74268135615188346499,15.00000000000000000000,0.63554533018698300406,12.00000000000000000000,2.08333333333333348136,0.83333333333333337034,0.41666666666666651864,0.41666666666666674068,1.25000000000000022204,3.67647058823529393479,1.61764705882352943789,0.73529411764705865373,1.02941176470588247049,0.88235294117647078416,0.44117647058823494799,0.29411764705882359472,0.29411764705882359472,0.44117647058823539208,0.58823529411764718944,12.00000000000000000000,0.00000000000000000000,1.25000000000000000000,0.83333333333333303727,0.83333333333333348136,2.08333333333333392545,1.32352941176470584317,1.32352941176470584317,6.91176470588235059012,0.44117647058823539208,0.00000000000000000000,0.00000000000000000000,0.00000000000000000000,0.00000000000000000000,0.00000000000000000000,0.00000000000000000000,7.00000000000000000000,1.25000000000000000000,0.41666666666666668517,0.00000000000000000000,1.25000000000000022204,2.08333333333333392545,0.14705882352941176960,0.14705882352941176960,0.14705882352941171409,0.14705882352941179736,2.20588235294117707141,6.47058823529411153430,0.73529411764705898680,0.00000000000000000000,0.00000000000000000000,0.00000000000000000000,4.00000000000000000000,1.25000000000000000000,0.83333333333333337034,0.83333333333333303727,0.41666666666666674068,1.66666666666666696273,0.00000000000000000000,0.00000000000000000000,0.00000000000000000000,0.00000000000000000000,0.00000000000000000000,0.73529411764705820964,7.79411764705882514903,0.73529411764705898680,0.14705882352941179736,0.58823529411764718944,2.00000000000000000000,1.25000000000000000000,0.83333333333333337034,0.83333333333333303727,0.83333333333333348136,1.25000000000000022204,0.00000000000000000000,0.00000000000000000000,0.00000000000000000000,0.44117647058823539208,0.88235294117647078416,7.94117647058822839767,0.44117647058823539208,0.14705882352941179736,0.00000000000000000000,0.14705882352941179736,11.00000000000000000000,0.00645412510794648748,-0.04609859740416868967,-0.16311286794183876836,-0.30864807101225288921,-0.39799446639043900564,-0.38528263576151283720,-0.02888071301686562231,0.04963063723964179080,0.17442900767751001734,0.30678653424493207424,0.39957050149841166764,0.43645165765815485681,0.44767125235765714564,0.50360348742855931548,0.57726877691215305877,0.66812288991149748618,0.72350956528233367759,0.77077082028744281494,0.78319826238143996910,0.79927149040990363993,0.79428864828073297844,0.81035773682586542677,0.81191123693118771865,0.85202393617582927732,0.87159927594899766490,0.10261817108754420214,1.21199999999999996625,0.18800000000000000044,1.02400000000000002132,0.09600000000000000200,0.05239092430625164054,0.23999999999999999112,-0.01685430700067108711,0.46400000000000002354,0.57212025322105619640,-0.00237699634699328755,0.27600000000000002309,0.74799999999999999822,1.69015594684546810456,0.15516339869281045583,0.84483660130718951642,0.07921568627450981115,0.19803921568627452787,0.38287581699346406872,0.22771241830065358513,0.61712418300653593128,0.18800000000000000044,0.15516339869281045583,1.01600000000000001421,0.83823529411764707842,1.20399999999999995914,0.99339869281045745097,5.40851449275362305968,0.10799999999999999878,0.08915032679738563171,0.41200000000000003286,0.33986928104575164777,0.52000000000000001776,0.42901960784313730723,3.82417582417582391230,0.06800000000000000488,0.05614379084967320577,0.13200000000000000622,0.10888888888888889617,0.20000000000000001110,0.16503267973856208806,1.95138888888888883955,0.87558902626308166006,5.58799769170132787366,14.88086988673045141240,9.06730867574340848591,6.46358671796440908963,23.94817856247385989832,0.13534105290719342096,0.86465894709280655128,0.62146762838806146600,0.37853237161193858951,0.21190155666226051512,0.78809844333773937386,0.97378266815812208890,0.36548260440439017671,0.00620742243653393810,-0.00663632918122247784,0.00040236212357830370,-0.00002897013997466003,0.00130119611463352935,0.42330975549969401817,0.94537218764908481639,0.81157106987890226257,0.72022690765066998964,0.60635424290182748930,-1.06920225385844069876,0.06477006445881687557,-0.00486615962946747305,0.20970642786580223627,2.23273019051148047254,1.91687871912607343816,1.70118748101915762128,1.43224247714878094584,0.04800000000000000100,0.10000000000000000555,0.11599999999999999201,0.04800000000000000100,0.07199999999999999456,0.03960784313725490557,0.08254901960784313819,0.09568627450980392302,0.03960784313725490557,0.05941176470588235142,0.14000000000000001332,0.04000000000000000083,0.07599999999999999811,0.12399999999999999911,0.19600000000000000755,0.11555555555555555025,0.03300653594771241900,0.06267973856209149708,0.10228758169934640265,0.16169934640522876101,-1.33881258655359225429,-0.00169407935715744666,-1.12910615868779018456,0.10730589229758794034
X1004,X1004_1,134.44692364913609594623,73.67864164522664793822,33.00000000000000000000,0.01857947781865778789,0.01620214989318884483,58.13953488372092692771,129.00000000000000000000,0.90538779359012999670,5.00000000000000000000,0.80116333334455380744,25.00000000000000000000,0.79110969857239454850,19.00000000000000000000,0.77492152469942099380,15.00000000000000000000,0.66203214470117421886,12.00000000000000000000,2.00000000000000000000,0.66666666666666662966,0.66666666666666640761,0.33333333333333337034,1.33333333333333348136,3.23076923076923083755,1.23076923076923083755,1.07692307692307642775,1.69230769230769273470,0.61538461538461552980,0.30769230769230743183,0.46153846153846167510,0.30769230769230776490,0.46153846153846167510,0.61538461538461552980,15.00000000000000000000,0.00000000000000000000,1.00000000000000000000,0.99999999999999966693,1.00000000000000022204,2.00000000000000044409,1.69230769230769229061,0.76923076923076927347,6.30769230769230571099,1.23076923076923105960,0.00000000000000000000,0.00000000000000000000,0.00000000000000000000,0.00000000000000000000,0.00000000000000000000,0.00000000000000000000,9.00000000000000000000,1.00000000000000000000,0.33333333333333331483,0.66666666666666640761,1.33333333333333348136,1.66666666666666718477,0.15384615384615385469,0.15384615384615385469,0.15384615384615379918,0.30769230769230776490,0.15384615384615388245,7.69230769230768540723,1.38461538461538480327,0.00000000000000000000,0.00000000000000000000,0.00000000000000000000,5.00000000000000000000,1.33333333333333325932,0.66666666666666662966,0.66666666666666640761,0.66666666666666674068,1.66666666666666718477,0.00000000000000000000,0.00000000000000000000,0.00000000000000000000,0.00000000000000000000,0.00000000000000000000,0.61538461538461486366,7.69230769230769428901,0.76923076923076949551,0.30769230769230776490,0.61538461538461552980,3.00000000000000000000,1.33333333333333325932,0.66666666666666662966,0.66666666666666640761,1.33333333333333348136,1.00000000000000022204,0.00000000000000000000,0.00000000000000000000,0.00000000000000000000,0.46153846153846167510,2.15384615384615418776,6.76923076923076294520,0.30769230769230776490,0.15384615384615388245,0.15384615384615388245,0.00000000000000000000,13.00000000000000000000,0.00256939217418951892,-0.02225816797860884211,-0.11685229553798121005,-0.23260869955242416407,-0.29690501789338608063,-0.26215226489137605226,-0.02142775096004254087,0.03830110590116361791,0.15358339657232925046,0.27680379792477166623,0.38913536660583336602,0.48203989868386309947,0.51253203331826258093,0.52464184529314950023,0.52795455716306038951,0.56815354536869155933,0.61347703000493758463,0.68138162625730980260,0.72992667794546484128,0.78219369791678017290,0.80337902811870309794,0.83252827947870799985,0.84042246444530821492,0.85919040830651671747,0.85402058502462829814,0.12104200189437128166,1.00000000000000000000,0.18400000000000002465,0.81599999999999994760,0.10399999999999999523,0.07372202369368198449,0.24266666666666666941,-0.02770455642431457477,0.45866666666666672247,0.31437023359078425377,-0.00198560180179946366,0.27466666666666667007,0.54133333333333333304,2.93451809164985277789,0.18462236424246011857,0.81537763575753985368,0.10435177109356441605,0.24335630870877364429,0.46008691021079201056,0.27546454596833191975,0.53991308978920793393,0.10399999999999999523,0.10435177109356441605,0.39200000000000007061,0.39297188496703777671,0.49599999999999999645,0.49732365606060219276,3.76923076923076960654,0.08000000000000000167,0.08027059314889568864,0.16000000000000000333,0.16050173623171254400,0.23999999999999999112,0.24077232938060824652,2.00000000000000000000,0.05333333333333333676,0.05364488594214047307,0.08266666666666666607,0.08277567234490335046,0.13600000000000000977,0.13642055828704383047,1.57142857142857139685,1.48957063037203485401,6.70484534076325733309,18.95423378023596683306,8.31494148589715820208,8.19441597113529418550,27.26917526613312148243,0.18147434389715255687,0.81852565610284744313,0.69597167375564605862,0.30402832624435394138,0.23140277585536217497,0.76859722414463782503,0.90889887896583998472,0.38202516194614039025,0.00867100426221508770,-0.01003971121208272789,0.00079660266755869158,0.00012600816293798869,0.00222355488912010868,0.16194016012394882309,0.90509115854354693642,0.66123048905209957926,0.51856110071906635905,0.34695997768635727931,-1.15690839101941267408,0.09096432400638014559,0.01374454771125885495,0.25653970732628600393,5.62401302228510058256,4.12371905638400715333,3.23666115691188949199,2.15806910266015794519,0.04800000000000000794,0.10399999999999999523,0.11200000000000000233,0.04800000000000000794,0.07466666666666665897,0.04816235588933742012,0.10435177109356441605,0.11237883040845397797,0.04816235588933742012,0.07478806309609264957,0.13600000000000000977,0.03200000000000000067,0.08000000000000000167,0.12800000000000000266,0.20266666666666666163,0.13646000835312269150,0.03210823725955827546,0.08027059314889568864,0.12843294903823310182,0.20322101213432575140,-1.51815697006333749641,-0.00230029626031269139,-1.26161726273705143697,0.14190391063280663464
X1004,X1004_2,130.75926526807501204530,67.30088300047795257797,33.00000000000000000000,0.01190504423562359013,0.01260076897184869010,53.76344086021505574990,139.50000000000000000000,0.87739049161947380018,7.00000000000000000000,0.78176656243030462345,25.00000000000000000000,0.77064260478710067126,19.00000000000000000000,0.80036389111826800047,16.00000000000000000000,0.65572077292060160225,13.00000000000000000000,2.30769230769230748734,0.38461538461538463674,0.76923076923076894040,0.38461538461538469225,1.15384615384615418776,4.77611940298507420266,1.04477611940298498183,1.79104477611940238191,0.59701492537313438635,0.29850746268656719318,0.29850746268656691562,0.14925373134328359659,0.29850746268656719318,0.29850746268656719318,0.44776119402985087303,13.00000000000000000000,0.00000000000000000000,0.76923076923076927347,1.15384615384615352163,1.15384615384615418776,1.92307692307692357225,1.04477611940298498183,0.74626865671641795519,2.98507462686567093257,5.22388059701492579734,0.00000000000000000000,0.00000000000000000000,0.00000000000000000000,0.00000000000000000000,0.00000000000000000000,0.00000000000000000000,8.00000000000000000000,1.15384615384615374367,0.38461538461538463674,0.38461538461538447020,1.15384615384615418776,1.92307692307692357225,0.14925373134328356883,0.14925373134328356883,0.14925373134328354108,0.14925373134328359659,0.59701492537313438635,7.01492537313432240609,1.79104477611940349213,0.00000000000000000000,0.00000000000000000000,0.00000000000000000000,5.00000000000000000000,1.53846153846153854694,0.76923076923076927347,0.38461538461538447020,0.38461538461538469225,1.92307692307692357225,0.00000000000000000000,0.00000000000000000000,0.00000000000000000000,0.00000000000000000000,0.00000000000000000000,0.89552238805970074687,7.76119402985074824386,0.44776119402985087303,0.29850746268656719318,0.59701492537313438635,16.00000000000000000000,1.15384615384615374367,0.76923076923076927347,0.76923076923076894040,1.53846153846153876898,0.76923076923076938449,0.00000000000000000000,0.00000000000000000000,0.00000000000000000000,0.44776119402985087303,1.49253731343283635447,7.46268656716417222441,0.29850746268656719318,0.14925373134328359659,0.00000000000000000000,0.14925373134328359659,12.00000000000000000000,0.00775224253290938276,-0.03191811128345199006,-0.13453914504036879052,-0.27300277376051457212,-0.36692423809352953112,-0.35988225238083265678,-0.02021688292480547725,0.10250815079200230329,0.28749610128278751953,0.45404650135038354675,0.57216101397957797037,0.62068056018170081334,0.60697539705696967882,0.62219213828009811706,0.66857856173863172700,0.74787406607455730878,0.80467067675511627645,0.85676006881827193595,0.87192381473883129317,0.88578050801533969594,0.87104888035365102272,0.87553910803287482434,0.86173276364468653910,0.88019767544668214843,0.88377253938770283792,0.06136926919387495488,1.13599999999999989875,0.18133333333333334636,0.95466666666666666341,0.10399999999999999523,0.07926318459419189055,0.24266666666666666941,-0.03562532591908181695,0.45600000000000001643,0.25638515877782425134,0.00038005418133046920,0.27466666666666667007,0.68000000000000004885,3.75787451609664602259,0.15964212247211012619,0.84035787752788981830,0.09159776340526115668,0.21372687185251670883,0.40155292152624566526,0.24191079905413556683,0.59844707847375433474,0.10133333333333333082,0.08918230446806309220,0.33866666666666667140,0.29835042283347362746,0.44000000000000000222,0.38753272730153670578,3.35042735042735051465,0.07466666666666665897,0.06576125404401793328,0.13333333333333333148,0.11736623166968190857,0.20799999999999999045,0.18312748571369985573,1.78888888888888875073,0.05066666666666667235,0.04462330864280381060,0.07199999999999999456,0.06341383620364234031,0.12266666666666665997,0.10803714484644615090,1.42857142857142860315,1.44407958120408141944,6.74740033819122597691,18.04080229918049838034,7.79666645667393520824,8.19147991939530584204,25.83746875585443447676,0.17643333806406288899,0.82356666193593708325,0.69840475448163530370,0.30159524551836486284,0.24067649445025682264,0.75932350554974314960,1.29943808832875018489,0.28659543879248372544,0.00939938102865313374,-0.01128036899348069076,0.00132659598042435723,0.00097758788733309787,0.00235799323555985207,0.17038939327924121359,0.94887850325674094609,0.55732321689378350182,0.44075129506983606875,0.28101334786916193353,-1.20047191748548232049,0.14065795442699999263,0.10311413654295999154,0.25086047607629535783,5.60863394261550496367,3.27982437887370181784,2.59484647880097618611,1.65520265498182372887,0.05066666666666667235,0.10133333333333333082,0.12800000000000000266,0.03466666666666667201,0.06933333333333334403,0.04455899582525927466,0.08931465838243009270,0.11286806272084227987,0.03039899112762739150,0.06106641836326676120,0.13066666666666668095,0.02933333333333333279,0.09866666666666666641,0.13333333333333333148,0.20266666666666666163,0.11508312664685087234,0.02576846826442075189,0.08709959445642152798,0.11749858558404892295,0.17856500394731567027,-1.69510448453173778738,-0.00239072907252261711,-1.44424400845544220751,0.19424545868499842882
X1004,X1004_3,128.81863625926845884351,68.74737236364542525280,33.00000000000000000000,0.01090400015061131385,0.00987628809118687098,58.59375000000000000000,128.00000000000000000000,0.89516934172673301440,5.00000000000000000000,0.80976248822662921789,26.00000000000000000000,0.80209068185907095305,19.00000000000000000000,0.80712848875361198342,15.00000000000000000000,0.69540021740563573438,12.00000000000000000000,2.14285714285714279370,0.71428571428571430157,0.71428571428571407953,0.35714285714285720630,1.07142857142857161890,3.93939393939393944777,1.06060606060606055223,2.42424242424242342153,0.45454545454545464134,0.30303030303030309422,0.30303030303030276116,0.30303030303030309422,0.30303030303030309422,0.30303030303030309422,0.60606060606060618845,14.00000000000000000000,0.00000000000000000000,1.07142857142857139685,1.07142857142857095276,0.71428571428571441260,2.14285714285714323779,1.21212121212121215486,0.75757575757575756903,2.57575757575757480211,5.30303030303030364934,0.15151515151515154711,0.00000000000000000000,0.00000000000000000000,0.00000000000000000000,0.00000000000000000000,0.00000000000000000000,9.00000000000000000000,1.07142857142857139685,0.35714285714285715079,0.71428571428571407953,1.07142857142857161890,1.78571428571428625354,0.30303030303030303871,0.15151515151515151936,0.15151515151515146385,0.15151515151515154711,0.45454545454545464134,6.81818181818181212606,1.96969696969697016797,0.00000000000000000000,0.00000000000000000000,0.00000000000000000000,5.00000000000000000000,1.42857142857142860315,0.71428571428571430157,0.71428571428571407953,0.71428571428571441260,1.42857142857142882519,0.00000000000000000000,0.00000000000000000000,0.00000000000000000000,0.00000000000000000000,0.00000000000000000000,1.06060606060605966405,7.57575757575757791074,0.45454545454545464134,0.30303030303030309422,0.60606060606060618845,17.00000000000000000000,1.07142857142857139685,0.71428571428571430157,1.07142857142857095276,1.42857142857142882519,0.71428571428571441260,0.00000000000000000000,0.00000000000000000000,0.00000000000000000000,0.45454545454545464134,2.12121212121212154855,6.81818181818181212606,0.15151515151515154711,0.15151515151515154711,0.15151515151515154711,0.15151515151515154711,13.00000000000000000000,-0.00767410739650893712,-0.02518459469080799873,-0.09886404719703899280,-0.20902467141327746303,-0.28735356831847891357,-0.27805195764378853873,-0.02589603640057664899,0.05554733752230232163,0.20599242427806932487,0.35129184370822902350,0.46623283233122309044,0.54351871223899295149,0.54533675920975577256,0.53253075376326874935,0.52920223433643909239,0.57766851547761099983,0.63111338526655258452,0.69802266572069793238,0.73757082502116688705,0.78147063319566123507,0.79690743959972754062,0.82341263243929263549,0.82797294483215633232,0.85626360742136720106,0.86671719455179685454,0.10568477659520977840,1.09333333333333349024,0.25333333333333335480,0.83999999999999996891,0.17333333333333333925,0.05307709046264807995,0.31199999999999999956,-0.02449858331664400701,0.53333333333333332593,0.49545786726613028073,0.00147606274941936011,0.28000000000000002665,0.55999999999999994227,1.96653274796440613592,0.23346379647749507247,0.76653620352250495529,0.15868469430113266161,0.28809227302377987678,0.49444345608729173280,0.26097965960979657707,0.50555654391270821169,0.25333333333333335480,0.23346379647749507247,0.83199999999999996181,0.75905829330486851436,1.08533333333333348314,0.99252208978236389214,3.54036935020861642798,0.10399999999999999523,0.09721283282927117853,0.30666666666666669849,0.27550850975508506258,0.41066666666666667984,0.37272134258435629661,2.94871794871794890014,0.06400000000000000133,0.05982328174108995228,0.09866666666666666641,0.09127082962699401003,0.16266666666666665386,0.15109411136808395537,1.54166666666666674068,0.93745840754605336276,4.63141798515862745944,11.81689540370418001203,4.81777427032559391051,5.56887639270468071118,16.63466967402977303436,0.16835881653560705318,0.83164118346439297458,0.71229328972269456699,0.28770671027730537750,0.25177264157515694132,0.74822735842484300317,1.25031065765139870472,0.29635225553003424759,0.00624201263814805341,-0.00775457543147939354,0.00089913307423872268,0.00072129748560734175,0.00167521589078160438,0.45916109260728754649,0.96462168073762410980,0.69045100256561886543,0.61350750779174967331,0.50106936949447988816,-1.24066258259882200576,0.14353171629556374378,0.11434901500659307161,0.26739806700157470187,2.10082378564310667812,1.50403563189291733515,1.33617440564250622437,1.09141291777714388722,0.12533333333333332438,0.09866666666666668029,0.12800000000000000266,0.03466666666666667201,0.07466666666666665897,0.11381723299531516791,0.09276522564193796783,0.11964656348217990456,0.03058174702010317894,0.07033149498902922792,0.12800000000000000266,0.02933333333333333279,0.09866666666666668029,0.13333333333333333148,0.20799999999999999045,0.11964656348217990456,0.02688133784024195061,0.09276522564193796783,0.12334697266204114330,0.19367846765107035734,-1.76594138090255370344,-0.00159851701009052286,-1.49854331390097872401,0.20420409345799858669
X1004,X1004_4,130.64997050193812810903,69.99065438844849040834,32.00000000000000000000,0.01451684661600989926,0.01343488792847697365,54.74452554744525656361,137.00000000000000000000,0.87860823604864513037,6.00000000000000000000,0.78702970630342750091,25.00000000000000000000,0.77245013898253367390,19.00000000000000000000,0.74079692602838753679,16.00000000000000000000,0.65153958586426141686,13.00000000000000000000,2.30769230769230748734,0.76923076923076927347,0.38461538461538447020,0.76923076923076938449,0.76923076923076938449,4.17910447761193992733,1.04477611940298498183,1.64179104477611881308,0.89552238805970174607,0.44776119402985087303,0.29850746268656691562,0.29850746268656719318,0.29850746268656719318,0.29850746268656719318,0.59701492537313438635,13.00000000000000000000,0.00000000000000000000,1.15384615384615374367,0.76923076923076894040,1.15384615384615418776,1.92307692307692357225,1.34328358208955234154,0.74626865671641795519,3.43283582089552119498,4.32835820895522438434,0.14925373134328359659,0.00000000000000000000,0.00000000000000000000,0.00000000000000000000,0.00000000000000000000,0.00000000000000000000,8.00000000000000000000,0.76923076923076927347,0.38461538461538463674,0.76923076923076894040,1.15384615384615418776,1.92307692307692357225,0.29850746268656713767,0.14925373134328356883,0.14925373134328354108,0.14925373134328359659,0.59701492537313438635,6.86567164179103883725,1.79104477611940349213,0.00000000000000000000,0.00000000000000000000,0.00000000000000000000,5.00000000000000000000,1.15384615384615374367,0.76923076923076927347,0.76923076923076894040,0.76923076923076938449,1.53846153846153876898,0.00000000000000000000,0.00000000000000000000,0.00000000000000000000,0.00000000000000000000,0.00000000000000000000,0.74626865671641728905,7.91044776119403181269,0.44776119402985087303,0.29850746268656719318,0.59701492537313438635,16.00000000000000000000,1.53846153846153854694,0.38461538461538463674,0.76923076923076894040,1.53846153846153876898,0.76923076923076938449,0.00000000000000000000,0.00000000000000000000,0.00000000000000000000,0.44776119402985087303,1.94029850746268706096,7.16417910447760597492,0.14925373134328359659,0.00000000000000000000,0.14925373134328359659,0.14925373134328359659,12.00000000000000000000,0.00566581015451175871,-0.02221660411628004553,-0.11618012175217644344,-0.24701491594668709140,-0.33298404364622496976,-0.31601590829538189764,-0.01783449683383441300,0.08415383445630793269,0.24546293812956990199,0.40102546661594584698,0.52141878643416195160,0.58503006410907476553,0.57819953293809234207,0.58260677666814453257,0.61159095393607643132,0.68387937870301707122,0.74344196483433655498,0.80603464405312486019,0.83590797490878887555,0.86761227695577691765,0.86826725861994580313,0.87609001794530916296,0.86356767892758412586,0.87736533081310741355,0.87254073216474525854,0.09473670751840866655,1.19199999999999994849,0.18399999999999999689,1.00800000000000000711,0.10000000000000000555,0.07630257161959402845,0.24799999999999999822,-0.03084493422405565344,0.46799999999999997158,0.28162703797001209516,-0.00136478952433749523,0.28400000000000003020,0.72399999999999997691,3.36746838862700847983,0.15447374352039666690,0.84552625647960333310,0.08386297047554654160,0.20820374126662161141,0.39281045751633991703,0.23833671399594319462,0.60718954248366019399,0.10399999999999999523,0.08731124633761550013,0.37199999999999999734,0.31203515889114263882,0.47599999999999997868,0.39934640522875819446,3.57692307692307709388,0.07599999999999999811,0.06389452332657200029,0.14799999999999999267,0.12416046878521523611,0.22400000000000000466,0.18805499211178722252,1.95555555555555571345,0.05200000000000000455,0.04374577417173765997,0.07599999999999999811,0.06371422132071219435,0.12800000000000000266,0.10745999549244986127,1.47619047619047627506,1.14384019906422107482,6.98675161466071870109,18.75083524358630526763,8.28907026230123733512,8.13059181372493888773,27.03990550588754260275,0.14166264585269491838,0.85833735414730516489,0.69403063555864363821,0.30596936444135647282,0.23105800410448862348,0.76894199589551126550,1.27279364011574358528,0.29350663184289921270,0.00898860730451204321,-0.01054167230880553863,0.00088146290737223243,0.00061257376152940024,0.00212893070116662586,0.18067409704130038550,0.92903944600624521755,0.60594946772298330373,0.47857902999246554332,0.31524195922024617067,-1.17295470702290915987,0.09764173705088730060,0.06795850486975521521,0.23666046463140030798,5.13926387571252973885,3.35797735789516238469,2.65307702412011625626,1.74498611561015559701,0.05200000000000000455,0.10000000000000000555,0.12800000000000000266,0.04000000000000000083,0.07200000000000000844,0.04356547216587784710,0.08404327248140636142,0.10745999549244986127,0.03358124859139058338,0.06026594545864322888,0.13200000000000000622,0.03200000000000000067,0.09600000000000000200,0.13600000000000000977,0.20800000000000001821,0.11090827135451881980,0.02686499887311246532,0.08059499661933738901,0.11417624521072797239,0.17444219066937122209,-1.57521541357495187263,-0.00234156416329812760,-1.33855494894355153690,0.16968076277924559747
X1004,X1004_5,126.33249495732016498550,68.06158078120813570422,32.00000000000000000000,0.01996477617699362467,0.01374333567903004462,56.17977528089887329088,133.50000000000000000000,0.88272152798595071577,6.00000000000000000000,0.80318888433939172877,25.00000000000000000000,0.80117642595812221806,19.00000000000000000000,0.79856456892094229705,15.00000000000000000000,0.66530286524502535439,13.00000000000000000000,2.14285714285714279370,0.71428571428571430157,0.35714285714285703977,0.71428571428571441260,1.07142857142857161890,4.54545454545454585826,0.90909090909090906063,2.27272727272727204095,0.45454545454545464134,0.30303030303030309422,0.30303030303030276116,0.15151515151515154711,0.30303030303030309422,0.15151515151515154711,0.60606060606060618845,14.00000000000000000000,0.00000000000000000000,1.07142857142857139685,1.07142857142857095276,0.71428571428571441260,2.14285714285714323779,1.21212121212121215486,0.60606060606060607743,1.51515151515151469397,6.51515151515151647033,0.15151515151515154711,0.00000000000000000000,0.00000000000000000000,0.00000000000000000000,0.00000000000000000000,0.00000000000000000000,8.00000000000000000000,1.07142857142857139685,0.35714285714285715079,0.35714285714285703977,1.42857142857142882519,1.78571428571428625354,0.30303030303030303871,0.15151515151515151936,0.15151515151515146385,0.00000000000000000000,0.60606060606060618845,6.66666666666666074548,2.12121212121212154855,0.00000000000000000000,0.00000000000000000000,0.00000000000000000000,5.00000000000000000000,1.42857142857142860315,0.71428571428571430157,0.71428571428571407953,0.71428571428571441260,1.42857142857142882519,0.00000000000000000000,0.00000000000000000000,0.00000000000000000000,0.00000000000000000000,0.00000000000000000000,0.90909090909090828347,7.72727272727272929131,0.45454545454545464134,0.30303030303030309422,0.60606060606060618845,17.00000000000000000000,1.42857142857142860315,0.71428571428571430157,0.71428571428571407953,1.42857142857142882519,0.71428571428571441260,0.00000000000000000000,0.00000000000000000000,0.00000000000000000000,0.60606060606060618845,2.87878787878787933963,6.06060606060605522316,0.15151515151515154711,0.00000000000000000000,0.15151515151515154711,0.15151515151515154711,13.00000000000000000000,0.00232397059400782542,-0.02382361091113291071,-0.11395335963511439570,-0.23460348468142078193,-0.31282539152763294554,-0.29685779647926346936,-0.02503634819659808150,0.06596515132495242573,0.23634165952167143776,0.40072275486677727541,0.52959584263480041777,0.62159855425781118665,0.64252946054232296103,0.64968295094472905404,0.65601025228050202642,0.69980989536686089014,0.74140587555229997552,0.79991398688006276618,0.83570982860688725058,0.87663418070901955037,0.88826745724882838484,0.90927587911249008190,0.90508713619798752958,0.92013472226182690950,0.91468491935112961055,0.04893989022747424061,1.02400000000000002132,0.18133333333333334636,0.84266666666666667496,0.10133333333333333082,0.07628558390175420312,0.24266666666666666941,-0.03588936186071359918,0.46133333333333337301,0.21794019402655440132,0.00091469413830121604,0.28000000000000002665,0.56266666666666653729,4.26099625921895164282,0.18064332308072728051,0.81935667691927271949,0.10069568436967517300,0.24234918179731668175,0.46046005856940963596,0.27981673548868229995,0.53953994143059047506,0.09866666666666668029,0.09818941870551477213,0.22933333333333336124,0.22861190630735853113,0.32800000000000001377,0.32680132501287334490,2.32692307692307709388,0.07466666666666665897,0.07420512709219913294,0.12800000000000000266,0.12791622193768334426,0.20266666666666668939,0.20212134902988251883,1.71851851851851833430,0.04800000000000000794,0.04796858322663125757,0.07199999999999999456,0.07195287483994688982,0.11999999999999999556,0.11992145806657815432,1.50000000000000000000,1.20905507505714449046,6.55263319942853073030,16.96295059423129814036,5.83724533811616907997,7.76168827448567544280,22.80019593234746722032,0.15583428342456759341,0.84416571657543248985,0.74492314450367336232,0.25507685549632669320,0.25401117285383478794,0.74598882714616510103,1.20843547156577502122,0.31287574703309323221,0.00896957470076215936,-0.01111680361971389974,0.00140886123053222500,0.00104803508197861173,0.00228073730076936787,0.17489159527497133428,0.91815696530271984077,0.51500266952551487787,0.37573622369753961747,0.23539914927644475795,-1.23979815406821569646,0.15781332344932438860,0.11728316745817840561,0.25496557946664860639,5.26889643767949866771,2.94872886401519096466,2.15328570208368041961,1.35148700091396256617,0.05333333333333333676,0.10133333333333333082,0.12800000000000000266,0.04266666666666666524,0.06666666666666666574,0.05272710114304390849,0.10167967807211547582,0.12791622193768334426,0.04222607160777830382,0.06621036322109392913,0.12800000000000000266,0.02666666666666666838,0.10133333333333333082,0.14399999999999998912,0.21066666666666666874,0.12791622193768334426,0.02623654386556788232,0.10167967807211547582,0.14390574967989377964,0.21011611290098772264,-1.76986022444236734685,-0.00207863694408407136,-1.51489464497571879598,0.21937404196548915269
X1004,X1004_6,124.90980617632962434982,69.71282381534447836202,34.00000000000000000000,0.01099329625953474748,0.00993672195501186205,58.59375000000000000000,128.00000000000000000000,0.88671287745964000315,5.00000000000000000000,0.80920440114257485842,26.00000000000000000000,0.80293695518249941223,19.00000000000000000000,0.80464603683854607485,15.00000000000000000000,0.68310327698743678049,13.00000000000000000000,2.05882352941176449690,0.58823529411764707842,0.58823529411764685637,0.29411764705882359472,1.47058823529411797360,3.65079365079365070201,1.26984126984126977078,2.85714285714285631812,0.31746031746031749821,0.31746031746031749821,0.31746031746031716514,0.31746031746031749821,0.15873015873015874910,0.31746031746031749821,0.47619047619047633058,17.00000000000000000000,0.00000000000000000000,0.88235294117647056211,1.17647058823529371274,0.88235294117647078416,2.05882352941176494099,1.26984126984126977078,0.63492063492063488539,0.63492063492063466335,7.30158730158730318038,0.15873015873015874910,0.00000000000000000000,0.00000000000000000000,0.00000000000000000000,0.00000000000000000000,0.00000000000000000000,9.00000000000000000000,1.17647058823529415683,0.29411764705882353921,0.58823529411764685637,1.17647058823529437888,1.76470588235294156831,0.15873015873015872135,0.15873015873015872135,0.15873015873015866584,0.31746031746031749821,0.15873015873015874910,6.66666666666666074548,2.38095238095238137532,0.00000000000000000000,0.00000000000000000000,0.00000000000000000000,5.00000000000000000000,1.47058823529411775155,0.58823529411764707842,0.58823529411764685637,0.88235294117647078416,1.47058823529411797360,0.00000000000000000000,0.00000000000000000000,0.00000000000000000000,0.00000000000000000000,0.00000000000000000000,1.11111111111111027228,7.46031746031746223480,0.15873015873015874910,0.47619047619047633058,0.79365079365079382878,20.00000000000000000000,1.17647058823529415683,0.58823529411764707842,0.88235294117647022905,1.17647058823529437888,1.17647058823529437888,0.00000000000000000000,0.00000000000000000000,0.00000000000000000000,0.63492063492063499641,1.90476190476190532230,6.98412698412697796613,0.15873015873015874910,0.15873015873015874910,0.15873015873015874910,0.00000000000000000000,16.00000000000000000000,0.00255072588163760688,-0.01273725323145602495,-0.09259108394604306791,-0.19609671919991158995,-0.26482224809541615729,-0.22662716243177150055,-0.00593591912029897348,0.09329547639467469788,0.24887019180069352986,0.40236003403967790515,0.52479129852352390806,0.61612154270157426517,0.63615437058066059972,0.63260736887677004869,0.62149312831464209594,0.64915735522541984093,0.68202779279306680049,0.73799072218357175679,0.77471465192369814989,0.81969555074437994158,0.83911557519011747974,0.86474248444046319939,0.86298164296651669325,0.87696508181175603092,0.86945052323885119172,0.09223302880931000258,1.10000000000000008882,0.20400000000000001465,0.89599999999999990763,0.12800000000000000266,0.08049235864241724436,0.26400000000000001243,-0.03738908713020644425,0.48399999999999998579,0.24245593053316644161,0.00171586585036952177,0.28000000000000002665,0.61599999999999999201,4.01842962449953500226,0.18624907338769458587,0.81375092661230541413,0.11720321931589536280,0.24097214868156305312,0.44082918564015671770,0.25458011225246213183,0.55917081435984328230,0.10000000000000000555,0.09088742984221115373,0.27599999999999996758,0.24915281160648097836,0.37600000000000000089,0.34004024144869215984,2.73717948717948722503,0.07599999999999999811,0.06904585407179922307,0.12800000000000000266,0.11625013237318648773,0.20400000000000001465,0.18529598644498568305,1.68333333333333334814,0.05200000000000000455,0.04720427830138726466,0.07199999999999999456,0.06552472731123583360,0.12399999999999999911,0.11272900561262311214,1.39285714285714279370,1.44269665402578528557,6.58948041839475529002,17.72108745148030806149,7.60074240674514634009,8.03217707242053968741,25.32182985822545617793,0.17972428291549583101,0.82027571708450408572,0.70011761218528567596,0.29988238781471432404,0.24084901165274763546,0.75915098834725236454,1.33137001324717774153,0.28073929259729163421,0.00957089725787105966,-0.01177047732007913128,0.00157935696137123660,0.00087112047884527199,0.00258090864011910337,0.21351425763251152823,0.96074615107170335815,0.56060376614891538338,0.41218713948959984084,0.25876363791713963280,-1.22895599265986521509,0.16442895364484227949,0.08994828206743053778,0.26900349709092302719,4.49901920137230160179,2.63100245388478892750,1.93499989329703758756,1.21472196150127276226,0.08000000000000000167,0.09600000000000000200,0.12399999999999999911,0.04399999999999999745,0.06800000000000000488,0.07352006777507147373,0.08736630308164777814,0.11296727734830032397,0.03992375304458328777,0.06176532881499523231,0.12399999999999999911,0.02800000000000000058,0.09600000000000000200,0.14000000000000001332,0.20799999999999999045,0.11272900561262311214,0.02536270253097532706,0.08760457481732500384,0.12752832786190829162,0.18929365667690351005,-1.75233672546306107343,-0.00226625791473357343,-1.48333322837213810175,0.21109509685101501830
X1004,X1004_7,130.81162034501397783970,71.05124959195624967379,33.00000000000000000000,0.01401497927166825766,0.01243669265033592319,57.69230769230769340083,130.00000000000000000000,0.90191885185459186314,5.00000000000000000000,0.81024708733156436402,26.00000000000000000000,0.79336233299357472593,19.00000000000000000000,0.82378973546325739985,15.00000000000000000000,0.71524926979150182937,12.00000000000000000000,2.00000000000000000000,0.66666666666666662966,0.66666666666666640761,0.33333333333333337034,1.33333333333333348136,3.23076923076923083755,1.23076923076923083755,0.76923076923076905143,2.61538461538461586287,0.46153846153846167510,0.30769230769230743183,0.30769230769230776490,0.15384615384615388245,0.30769230769230776490,0.61538461538461552980,15.00000000000000000000,0.00000000000000000000,1.00000000000000000000,0.99999999999999966693,1.33333333333333348136,1.66666666666666718477,1.38461538461538458122,0.61538461538461541878,3.23076923076922994937,4.76923076923077005063,0.00000000000000000000,0.00000000000000000000,0.00000000000000000000,0.00000000000000000000,0.00000000000000000000,0.00000000000000000000,9.00000000000000000000,1.00000000000000000000,0.33333333333333331483,0.33333333333333320381,1.33333333333333348136,2.00000000000000044409,0.15384615384615385469,0.15384615384615385469,0.30769230769230759837,0.15384615384615388245,0.92307692307692335021,6.30769230769230215827,2.00000000000000044409,0.00000000000000000000,0.00000000000000000000,0.00000000000000000000,6.00000000000000000000,1.33333333333333325932,0.33333333333333331483,0.66666666666666640761,0.66666666666666674068,2.00000000000000044409,0.00000000000000000000,0.00000000000000000000,0.00000000000000000000,0.00000000000000000000,0.00000000000000000000,1.07692307692307598366,6.76923076923077093880,0.92307692307692335021,0.46153846153846167510,0.76923076923076949551,18.00000000000000000000,1.00000000000000000000,0.66666666666666662966,0.99999999999999966693,1.33333333333333348136,1.00000000000000022204,0.00000000000000000000,0.00000000000000000000,0.00000000000000000000,0.46153846153846167510,1.69230769230769273470,7.23076923076922462030,0.30769230769230776490,0.15384615384615388245,0.15384615384615388245,0.00000000000000000000,13.00000000000000000000,-0.00044810204880605439,-0.02419424102216952491,-0.12044542288692472454,-0.23471935941862090425,-0.29306428680981977397,-0.24881304442364271523,-0.01422579987675692825,0.06268949306423106382,0.19672246758460143479,0.33636533553844549793,0.44716286381815217865,0.52534653317403612327,0.53840430165803088158,0.53749150149950519761,0.53718090667552254036,0.57944584438811863603,0.62480787913496527164,0.69052964675413008866,0.73698058917865283401,0.79093355959474420658,0.81744470982513373070,0.85266235732368189648,0.86113355567067717544,0.88503730454703166686,0.88638148463835875202,0.11704316556691148066,1.10133333333333349735,0.18400000000000002465,0.91733333333333344495,0.10399999999999999523,0.06762840035199459143,0.24533333333333331994,-0.02853819992248303808,0.45600000000000001643,0.26429005627085994101,0.00130067089390473178,0.27200000000000001954,0.64533333333333331439,3.16170867238560626689,0.16946962502518059246,0.83053037497481929652,0.09570425833052094433,0.22591781581680570046,0.41957466401910847864,0.25010503899392783067,0.58042533598089152136,0.10399999999999999523,0.09589497670305750787,0.38400000000000006350,0.35496168627481755609,0.48799999999999998934,0.45085666297787513335,3.69230769230769206857,0.07733333333333332338,0.07101054575802050184,0.14400000000000001688,0.13208045228247247693,0.22133333333333335413,0.20309099804049299265,1.86296296296296293171,0.04800000000000000794,0.04425922001679577500,0.07466666666666665897,0.06844644319391794685,0.12266666666666665997,0.11270566321071372184,1.55555555555555558023,1.27581291390095663552,6.05056350651259844398,16.31868408760494659759,9.01316815820898398215,7.32637642041355352518,25.33185224581393413246,0.17440124529922873542,0.82559875470077137560,0.65062797681089801216,0.34937202318910198784,0.22655473360065958577,0.77344526639934041423,1.13906594653207426937,0.31777850799029255802,0.00794761852587832530,-0.00937035815660650952,-0.00202012598061696025,-0.00192216870678827800,0.00226008238617362656,0.17858827656407783024,0.81815459285549108071,0.63220880807495227760,0.56482112834018149972,0.27617711959371421537,-1.17985751870171107214,-0.27597247625495285872,-0.26002668154822522473,0.28537663225540521594,4.57983402636715553058,3.57003075099411271154,3.20324648642604792315,1.54572800187346026668,0.05600000000000000117,0.09600000000000001588,0.09066666666666667318,0.02400000000000000397,0.11733333333333334503,0.05144503831372518321,0.08851844003359155000,0.08015430136642258396,0.02073519447256820872,0.11233285980760727985,0.12800000000000000266,0.03200000000000000067,0.05866666666666666557,0.08266666666666666607,0.19999999999999998335,0.11802458671145539537,0.02950614667786384884,0.05064815468855873165,0.07138334916112694384,0.18371620896873422368,-0.92923499315393820464,-0.00417658491504226126,-0.64385836089853276665,0.10506015684549864508
X1004,X1004_8,129.99109046289706270727,70.76960360753869849759,33.00000000000000000000,0.01783241484587447245,0.01274708428031969855,58.59375000000000000000,128.00000000000000000000,0.89216343546869403269,5.00000000000000000000,0.80976542217433011839,25.00000000000000000000,0.80393173177512855521,19.00000000000000000000,0.80470227452793119394,15.00000000000000000000,0.68651696682156249096,12.00000000000000000000,2.14285714285714279370,0.71428571428571430157,0.35714285714285703977,0.71428571428571441260,1.07142857142857161890,4.24242424242424220893,1.06060606060606055223,2.27272727272727204095,0.45454545454545464134,0.30303030303030309422,0.30303030303030276116,0.30303030303030309422,0.30303030303030309422,0.15151515151515154711,0.60606060606060618845,14.00000000000000000000,0.00000000000000000000,1.07142857142857139685,1.07142857142857095276,0.71428571428571441260,2.14285714285714323779,1.21212121212121215486,0.75757575757575756903,1.81818181818181745513,6.21212121212121370917,0.00000000000000000000,0.00000000000000000000,0.00000000000000000000,0.00000000000000000000,0.00000000000000000000,0.00000000000000000000,8.00000000000000000000,1.07142857142857139685,0.35714285714285715079,0.35714285714285703977,1.42857142857142882519,1.78571428571428625354,0.30303030303030303871,0.15151515151515151936,0.00000000000000000000,0.15151515151515154711,0.45454545454545464134,6.81818181818181212606,2.12121212121212154855,0.00000000000000000000,0.00000000000000000000,0.00000000000000000000,5.00000000000000000000,1.42857142857142860315,0.71428571428571430157,0.71428571428571407953,0.71428571428571441260,1.42857142857142882519,0.00000000000000000000,0.00000000000000000000,0.00000000000000000000,0.00000000000000000000,0.00000000000000000000,1.06060606060605966405,7.57575757575757791074,0.45454545454545464134,0.30303030303030309422,0.60606060606060618845,17.00000000000000000000,1.42857142857142860315,0.71428571428571430157,0.71428571428571407953,1.07142857142857161890,1.07142857142857161890,0.00000000000000000000,0.00000000000000000000,0.00000000000000000000,0.60606060606060618845,2.57575757575757613438,6.36363636363635798432,0.15151515151515154711,0.00000000000000000000,0.15151515151515154711,0.15151515151515154711,13.00000000000000000000,0.00139758262999091151,-0.02633117273895724600,-0.11965243327321342659,-0.23946713993556545397,-0.31326020987208019752,-0.28592714463821627957,-0.01578131452437863888,0.08336280691717684599,0.24372884787436674414,0.39626898288139045246,0.51402866203712938020,0.59139734007998112642,0.60253893804550062718,0.61000311801017970126,0.62178626156108707246,0.67173592718075780805,0.71967239972088692390,0.78114224847115920625,0.81780199353684079888,0.85912856376026358607,0.87192949113429685237,0.89110411827183666489,0.88399975454477353054,0.89646039924510689811,0.88911866449112286759,0.07504016706726293617,1.03200000000000002842,0.17999999999999999334,0.85199999999999997957,0.10000000000000000555,0.07677420410690055652,0.23599999999999998757,-0.03697311913450918031,0.44400000000000000577,0.24281528054380294157,0.00279147508510756148,0.26400000000000001243,0.58799999999999996714,3.82292982926940538846,0.17440043277033118185,0.82559956722966876264,0.09686241509887599799,0.22867704514034981056,0.43015567710524738043,0.25575524433491614307,0.56984432289475273059,0.10399999999999999523,0.10079942297289173903,0.29999999999999998890,0.29166917112460177819,0.40400000000000002576,0.39246859409749357273,2.88461538461538458122,0.07199999999999999456,0.06978421590430966548,0.12399999999999999911,0.12012382040031255315,0.19600000000000000755,0.18990803630462221863,1.72222222222222232091,0.04800000000000000100,0.04652281060287311032,0.06400000000000000133,0.06203041413716414709,0.11200000000000000233,0.10855322474003725741,1.33333333333333325932,1.35514342072167548459,6.70872416583596020700,16.17609083593072227814,6.53337623435225189894,8.06386758655763458137,22.70946707028296884801,0.16812225797480392919,0.83187774202519615407,0.71224818272634493610,0.28775181727365511941,0.26203525978349040404,0.73796474021650948494,1.19064611708591883144,0.30585656670782285227,0.00906384704614526110,-0.01146854360136162487,-0.00416224881979604389,-0.00386435998359535571,0.00267675718752538594,0.18763254390265643456,0.91122467308175369993,0.73389984368798155678,0.64627542235621904254,0.24598207136794666972,-1.26521404649586388658,-0.47286812283857093675,-0.43785256512445019927,0.29586588853127315790,4.85681227062591336363,3.90762673306548746766,3.43903523406770972315,1.31100068961154292424,0.05200000000000000455,0.09600000000000000200,0.07199999999999999456,0.02800000000000000058,0.13200000000000000622,0.05033960449600288767,0.09304562120574622064,0.06906293201899380008,0.02683777123279437390,0.12883933401454589207,0.12800000000000000266,0.03200000000000000067,0.03999999999999999389,0.06800000000000000488,0.20000000000000001110,0.12406082827432829419,0.03101520706858207355,0.03804772495041173347,0.06488549618320610390,0.19372483019775199597,-0.65035924706411618601,-0.00616542990134606901,-0.35449335853284302811,0.10337184509580628344
X1004,X1004_9,125.67167015312043076847,68.20972025146683392904,32.00000000000000000000,0.01621066211484775699,0.01489182155783141427,56.39097744360902453309,133.00000000000000000000,0.87782340134251268804,6.00000000000000000000,0.80177120617003883041,25.00000000000000000000,0.81078717774912101302,19.00000000000000000000,0.79545288008784642564,16.00000000000000000000,0.65944893952171201867,13.00000000000000000000,2.14285714285714279370,0.71428571428571430157,0.35714285714285703977,0.71428571428571441260,1.07142857142857161890,4.39393939393939358951,1.06060606060606055223,2.42424242424242342153,0.45454545454545464134,0.30303030303030309422,0.15151515151515138058,0.30303030303030309422,0.15151515151515154711,0.30303030303030309422,0.45454545454545464134,14.00000000000000000000,0.00000000000000000000,0.71428571428571430157,1.07142857142857095276,1.07142857142857161890,2.14285714285714323779,1.21212121212121215486,0.60606060606060607743,0.75757575757575734698,6.36363636363636508975,1.06060606060606077428,0.00000000000000000000,0.00000000000000000000,0.00000000000000000000,0.00000000000000000000,0.00000000000000000000,8.00000000000000000000,1.07142857142857139685,0.35714285714285715079,0.35714285714285703977,1.07142857142857161890,2.14285714285714323779,0.30303030303030303871,0.15151515151515151936,0.15151515151515146385,0.15151515151515154711,0.60606060606060618845,6.51515151515150936490,1.81818181818181856535,0.30303030303030309422,0.00000000000000000000,0.00000000000000000000,5.00000000000000000000,1.42857142857142860315,0.71428571428571430157,0.71428571428571407953,0.71428571428571441260,1.42857142857142882519,0.00000000000000000000,0.00000000000000000000,0.00000000000000000000,0.00000000000000000000,0.00000000000000000000,1.21212121212121104463,7.42424242424242564198,0.30303030303030309422,0.45454545454545464134,0.60606060606060618845,17.00000000000000000000,1.42857142857142860315,0.71428571428571430157,1.07142857142857095276,0.71428571428571441260,1.07142857142857161890,0.00000000000000000000,0.00000000000000000000,0.00000000000000000000,0.60606060606060618845,4.09090909090909171653,4.84848484848484417853,0.15151515151515154711,0.00000000000000000000,0.15151515151515154711,0.15151515151515154711,13.00000000000000000000,0.00130657714061596891,-0.02627564945490808504,-0.11552259766947214903,-0.24141241495818543950,-0.32724346934295839295,-0.31384827033469497870,-0.01579982072706584764,0.11210484818003008112,0.31158816993551213814,0.48908009451358774866,0.61296212000614358484,0.67334974847284057020,0.64870712719355683173,0.62763896125575502349,0.63549087024102168808,0.70021794437960194202,0.76375795072798602359,0.83490144382461028982,0.87397746596651471052,0.91044084121076718219,0.91466449363149093799,0.92795858842015688239,0.91956517764866207987,0.93317127380654607549,0.92709536609753884218,0.05817368405499268036,1.04533333333333344761,0.18133333333333334636,0.86399999999999999023,0.10399999999999999523,0.07845723093090024858,0.24533333333333331994,-0.03988571215228290529,0.45599999999999996092,0.22412462155107962247,0.00373118943012316429,0.27466666666666667007,0.58933333333333326465,4.22584730112290340998,0.17353348696632275860,0.82646651303367724140,0.09943787555727855165,0.23480002584480197392,0.43632127960486166707,0.26278779263853890846,0.56367872039513822191,0.09600000000000001588,0.09189980831771875358,0.20533333333333333992,0.19619255813285663148,0.30133333333333339743,0.28809236645057539894,2.13888888888888883955,0.07199999999999999456,0.06892485623828907559,0.11733333333333333115,0.11222925775164581397,0.18933333333333335347,0.18115411398993486181,1.62962962962962976121,0.04800000000000000794,0.04594990415885937679,0.06400000000000000133,0.06126653887847918062,0.11200000000000000233,0.10721644303733855741,1.33333333333333325932,1.32911787032985162504,6.47248653141847274384,16.32860959418246338259,5.99228118309922042073,7.80160440174832547910,22.32089077728167936243,0.17027422388221333249,0.82972577611778663975,0.73094834063289548798,0.26905165936710451202,0.25930848004748302538,0.74069151995251691911,1.28655534163893414679,0.28646427075409619523,0.00928103792634379053,-0.01182844321722609227,-0.00212622182373243618,-0.00206841795342425439,0.00265483695977089540,0.16963354556805590456,0.93366688683850629360,0.64259624695699335550,0.54580187845462424523,0.22393191553379207526,-1.27476420358558417689,-0.24050178255118126458,-0.23207657071666198956,0.28643101574709256552,5.51112261849528994873,3.80131960559791082233,3.22618412136986520977,1.31994980193963251658,0.05333333333333333676,0.10133333333333333082,0.09066666666666667318,0.02933333333333333279,0.10933333333333333792,0.05100040920936443206,0.09691262303202601014,0.08561629084017143010,0.02774726655323670257,0.10611983373177402701,0.12800000000000000266,0.02666666666666666838,0.06400000000000000133,0.09333333333333333759,0.20266666666666666163,0.12253307775695836124,0.02562045472493233375,0.05999583611523909982,0.08774310266847580586,0.19386293640024984675,-1.08861686606483343276,-0.00486176085729700478,-0.80218585031774081173,0.15528039794752820923
X1004,X1004_10,131.81853175490533658376,72.28406702846358200532,33.00000000000000000000,0.01140562790046377971,0.01287011523403001380,58.59375000000000000000,128.00000000000000000000,0.89758395953927805344,6.00000000000000000000,0.80446183209578914219,25.00000000000000000000,0.79514784798874915683,19.00000000000000000000,0.81804688025988914202,15.00000000000000000000,0.70116722421882837768,12.00000000000000000000,2.14285714285714279370,0.71428571428571430157,0.35714285714285703977,0.71428571428571441260,1.07142857142857161890,3.78787878787878806719,1.21212121212121215486,1.06060606060606010814,1.81818181818181856535,0.45454545454545464134,0.30303030303030276116,0.30303030303030309422,0.15151515151515154711,0.30303030303030309422,0.60606060606060618845,14.00000000000000000000,0.00000000000000000000,1.07142857142857139685,1.07142857142857095276,0.71428571428571441260,2.14285714285714323779,1.36363636363636353543,0.60606060606060607743,3.78787878787878673492,4.24242424242424309710,0.00000000000000000000,0.00000000000000000000,0.00000000000000000000,0.00000000000000000000,0.00000000000000000000,0.00000000000000000000,8.00000000000000000000,1.07142857142857139685,0.35714285714285715079,0.35714285714285703977,1.42857142857142882519,1.78571428571428625354,0.15151515151515151936,0.15151515151515151936,0.15151515151515146385,0.15151515151515154711,1.06060606060606077428,6.36363636363635798432,1.96969696969697016797,0.00000000000000000000,0.00000000000000000000,0.00000000000000000000,5.00000000000000000000,1.42857142857142860315,0.71428571428571430157,0.35714285714285703977,0.71428571428571441260,1.78571428571428625354,0.00000000000000000000,0.00000000000000000000,0.00000000000000000000,0.00000000000000000000,0.00000000000000000000,0.75757575757575690290,7.57575757575757791074,0.60606060606060618845,0.30303030303030309422,0.75757575757575779107,17.00000000000000000000,1.42857142857142860315,0.35714285714285715079,0.71428571428571407953,1.42857142857142882519,1.07142857142857161890,0.00000000000000000000,0.00000000000000000000,0.00000000000000000000,0.45454545454545464134,1.66666666666666718477,7.27272727272726626779,0.30303030303030309422,0.15151515151515154711,0.00000000000000000000,0.15151515151515154711,13.00000000000000000000,-0.00028115173846750491,-0.03108293712262534536,-0.12689094020885521852,-0.25495993462428379051,-0.33535860038916076586,-0.31571804067667885718,-0.02249940997928375971,0.06736217504708968962,0.21960915727977020628,0.36879181465961474728,0.48916610850135627819,0.56071554437175941121,0.55621965998173306112,0.55313071890910370243,0.56983549184208326377,0.63504978123715427607,0.69678993867382321703,0.76875795458337337074,0.80848530150246589177,0.85103652564979881401,0.86551918304189745523,0.88797276335088715093,0.88509167407340794131,0.90651999469412769539,0.91084765968516778756,0.10648460998860147242,1.05066666666666663765,0.17866666666666666807,0.87199999999999999734,0.09600000000000001588,0.06944430904893029999,0.23466666666666666230,-0.02845413516989166516,0.44533333333333335879,0.30227031938967757752,0.00062827099734195457,0.26666666666666666297,0.60533333333333327886,2.89559351260809672013,0.17019032411865783749,0.82980967588134213475,0.09152304140939217236,0.22357876494080328178,0.42405017914802017875,0.25385985502936231351,0.57594982085197976573,0.10399999999999999523,0.09914996152684152353,0.40266666666666667274,0.38417676292037233887,0.50666666666666670960,0.48332672444721386240,3.87179487179487180626,0.08000000000000000167,0.07626920117449347003,0.14933333333333334569,0.14185413480239431050,0.22933333333333330573,0.21812333597688779441,1.86666666666666647423,0.05333333333333333676,0.05078427415547876606,0.07733333333333332338,0.07343844412658849519,0.13066666666666668095,0.12422271828206725430,1.45238095238095232808,1.23973762521869645958,6.37500480084985099438,16.61430978010391257271,8.32265137780744090890,7.61474242606854812010,24.93696115791135170525,0.16335258743162708872,0.83664741256837293903,0.66536780748004853425,0.33463219251995152126,0.23429232986287173990,0.76570767013712826010,1.03446498583173052133,0.34134313004107980083,0.00837834308923939529,-0.00971414404956949529,-0.00197318070089388042,-0.00186876790916025892,0.00225870673275383816,0.19275849328349695111,0.85311314715312391854,0.67898057503597497586,0.59637889825986112324,0.32106343082823185497,-1.16100524941655525168,-0.24529092459892751221,-0.23037421530055604557,0.27049647763009326829,4.46722491018610856628,3.52742695936825834124,3.07587861579127386236,1.68480343673234922441,0.04800000000000000794,0.09600000000000001588,0.09066666666666667318,0.02933333333333333279,0.10933333333333333792,0.04576152070469608618,0.09152304140939217236,0.08530582030438642327,0.02742982779131025728,0.10538768788119111386,0.13066666666666668095,0.03466666666666667201,0.05599999999999999423,0.08533333333333333048,0.19466666666666665453,0.12442880341396174437,0.03290576200456957201,0.05240005829981683738,0.07982988609112710854,0.18521757397231822240,-0.95583658714716490667,-0.00428619914675925241,-0.68534010951707158288,0.10601947374116138523
X1004,X1004_11,131.71890232034303380715,69.44768227939670168780,33.00000000000000000000,0.01644638614275130764,0.01105690347273385714,57.47126436781609015725,130.50000000000000000000,0.88948080306663879213,6.00000000000000000000,0.81104277512868383493,26.00000000000000000000,0.80340501336720726577,19.00000000000000000000,0.76462142252167875078,15.00000000000000000000,0.68749788743325046525,13.00000000000000000000,2.14285714285714279370,0.35714285714285715079,0.71428571428571407953,0.71428571428571441260,1.07142857142857161890,3.18181818181818165669,1.36363636363636353543,0.75757575757575734698,2.27272727272727337322,0.45454545454545464134,0.45454545454545414174,0.30303030303030309422,0.30303030303030309422,0.30303030303030309422,0.60606060606060618845,14.00000000000000000000,0.00000000000000000000,1.07142857142857139685,0.71428571428571407953,1.42857142857142882519,1.78571428571428625354,1.36363636363636353543,0.60606060606060607743,5.45454545454545325356,2.57575757575757613438,0.00000000000000000000,0.00000000000000000000,0.00000000000000000000,0.00000000000000000000,0.00000000000000000000,0.00000000000000000000,8.00000000000000000000,1.07142857142857139685,0.35714285714285715079,0.35714285714285703977,1.07142857142857161890,2.14285714285714323779,0.15151515151515151936,0.15151515151515151936,0.15151515151515146385,0.15151515151515154711,1.36363636363636375748,6.21212121212120660374,1.81818181818181856535,0.00000000000000000000,0.00000000000000000000,0.00000000000000000000,5.00000000000000000000,1.07142857142857139685,0.71428571428571430157,0.71428571428571407953,0.71428571428571441260,1.78571428571428625354,0.00000000000000000000,0.00000000000000000000,0.00000000000000000000,0.00000000000000000000,0.00000000000000000000,0.90909090909090828347,6.96969696969697150024,1.06060606060606077428,0.30303030303030309422,0.75757575757575779107,2.00000000000000000000,1.07142857142857139685,0.71428571428571430157,1.07142857142857095276,1.07142857142857161890,1.07142857142857161890,0.00000000000000000000,0.00000000000000000000,0.00000000000000000000,0.15151515151515154711,1.66666666666666718477,7.42424242424241764837,0.45454545454545464134,0.15151515151515154711,0.15151515151515154711,0.00000000000000000000,12.00000000000000000000,-0.00285094945775315111,-0.03818333998287099657,-0.13809669411431960140,-0.26407882761426498819,-0.33811713340345056489,-0.31421290786000549700,-0.02509235852089128360,0.05203925542354583683,0.19345535672809746619,0.33306358221362836192,0.43698592603084457364,0.48668440246673566607,0.46625196242671940183,0.46422561575051818350,0.48808559112234117805,0.56015717315433810608,0.63061667726961934122,0.70960619554464521297,0.75742685575160029199,0.81046882547070164815,0.83125870742123575408,0.85919298392270582188,0.86740748571163617253,0.90169867498133926542,0.91366361056398837093,0.13435046527386110271,1.04000000000000003553,0.17999999999999999334,0.85999999999999998668,0.10000000000000000555,0.07019697100044472449,0.24399999999999999467,-0.02791491755860919799,0.44400000000000000577,0.32016421713250642345,0.00081179389047353334,0.26400000000000001243,0.59599999999999997424,2.75117576538859553992,0.17308033864188027140,0.82691966135811967309,0.09611627493931679256,0.23465158960393106558,0.42688413948256465069,0.25380380084068437929,0.57311586051743534931,0.10399999999999999523,0.10005328281333253360,0.41200000000000003286,0.39663134213486472834,0.51600000000000001421,0.49668462494819720643,3.96153846153846167510,0.07599999999999999811,0.07320466520632289142,0.15199999999999999623,0.14605411165709547561,0.22800000000000000822,0.21925877686341838091,2.01111111111111107164,0.04800000000000000100,0.04617843822153809563,0.08399999999999999134,0.08072346219880409401,0.13200000000000000622,0.12690190042034218965,1.75000000000000000000,1.36930173745447048006,6.34642682919459844015,17.90102787747098744831,9.49264392774831122779,7.71572856664906936430,27.39367180521929867609,0.17802804669238847524,0.82197195330761152476,0.65163342495836729107,0.34836657504163265342,0.21981846960264983526,0.78018153039735005372,0.90262760145087828079,0.37006412976606239962,0.00824597621855398255,-0.00945188494349119557,-0.00787717648323515984,-0.00687098106756445226,0.00225988324822906650,0.16419876420883089407,0.85937924383157116015,0.88064913916408649186,0.87271546000003885624,0.33385722861442612697,-1.14526705542930740123,-0.95441802913409723441,-0.83276022131392257730,0.27558929146463140292,5.38531722351246511238,5.52147072056225951542,5.47269558430538438643,2.09098857253237735421,0.04800000000000000100,0.10000000000000000555,0.02400000000000000050,0.00800000000000000017,0.20000000000000001110,0.04617843822153809563,0.09611627493931679256,0.02308921911076904782,0.00769640637025634927,0.19223254987863358512,0.13200000000000000622,0.03200000000000000067,-0.00800000000000000017,0.00000000000000000000,0.20000000000000001110,0.12690190042034218965,0.03078562548102539709,-0.00769640637025634927,0.00000000000000000000,0.19223254987863358512,0.36632190355408117410,-0.00817734946188058975,0.64191119501871263253,0.00004074854352830087
X1004,X1004_12,126.40191848693598331010,67.44138235442871120995,35.00000000000000000000,0.00696289430447499628,0.00877287269384643791,56.60377358490566024329,132.50000000000000000000,0.88896966769093754834,6.00000000000000000000,0.81255848122466467487,26.00000000000000000000,0.80184891266835833790,19.00000000000000000000,0.80744341144553910539,15.00000000000000000000,0.67707557431154052896,13.00000000000000000000,2.00000000000000000000,0.66666666666666662966,0.66666666666666640761,0.33333333333333337034,1.33333333333333348136,4.15384615384615418776,1.23076923076923083755,2.30769230769230659917,0.46153846153846167510,0.30769230769230776490,0.30769230769230743183,0.15384615384615388245,0.30769230769230776490,0.30769230769230776490,0.46153846153846167510,15.00000000000000000000,0.00000000000000000000,1.00000000000000000000,0.99999999999999966693,1.33333333333333348136,1.66666666666666718477,1.23076923076923083755,0.61538461538461541878,1.38461538461538413713,5.84615384615384670042,0.92307692307692335021,0.00000000000000000000,0.00000000000000000000,0.00000000000000000000,0.00000000000000000000,0.00000000000000000000,9.00000000000000000000,1.00000000000000000000,0.33333333333333331483,0.33333333333333320381,1.33333333333333348136,2.00000000000000044409,0.15384615384615385469,0.15384615384615385469,0.15384615384615379918,0.15384615384615388245,0.76923076923076949551,6.46153846153845545786,1.84615384615384670042,0.30769230769230776490,0.00000000000000000000,0.00000000000000000000,6.00000000000000000000,1.00000000000000000000,0.66666666666666662966,0.66666666666666640761,1.00000000000000022204,1.66666666666666718477,0.00000000000000000000,0.00000000000000000000,0.00000000000000000000,0.00000000000000000000,0.00000000000000000000,0.76923076923076860734,7.69230769230769428901,0.46153846153846167510,0.30769230769230776490,0.76923076923076949551,17.00000000000000000000,1.33333333333333325932,0.33333333333333331483,0.99999999999999966693,1.33333333333333348136,1.00000000000000022204,0.00000000000000000000,0.00000000000000000000,0.00000000000000000000,0.46153846153846167510,2.46153846153846211919,6.76923076923076294520,0.00000000000000000000,0.15384615384615388245,0.15384615384615388245,0.00000000000000000000,13.00000000000000000000,-0.00068723905820103120,-0.02252300529482467381,-0.11360705957913137809,-0.23943674988860119690,-0.31660154014624919405,-0.28958175202478836363,-0.00963142893575288928,0.11341763741734174620,0.30288198597392601563,0.47961626069416629647,0.60077024733145567570,0.65634057885405472366,0.63110895884882767248,0.61159748143459613523,0.61515324581286623395,0.67131092787131996236,0.72764334104197925246,0.79582909111653377110,0.83563303861576976317,0.87811187700214510254,0.89123887722428618563,0.91061831273756910221,0.90839405530069905481,0.92759895359214372679,0.92440223375168517617,0.08995421331592623471,1.04266666666666663055,0.18400000000000002465,0.85866666666666668917,0.10666666666666667351,0.07107742295421602685,0.25066666666666664876,-0.03528096505388552545,0.45599999999999996092,0.22579930618793964126,0.00349184329611347067,0.27200000000000001954,0.58666666666666678065,3.91644890903083142675,0.17652549241353310272,0.82347450758646678626,0.10238884176797663494,0.24063481292997832006,0.43780755819432659592,0.26128206578079354871,0.56219244180567340408,0.10133333333333333082,0.09717764583922344768,0.27466666666666667007,0.26168994439732357060,0.37600000000000005640,0.35886759023654701828,2.69871794871794890014,0.07466666666666665897,0.07159212138346998655,0.12266666666666665997,0.11774950523042125583,0.19733333333333336057,0.18934162661389122850,1.64814814814814813992,0.04800000000000000794,0.04608199038733389735,0.06933333333333334403,0.06665384977853171244,0.11733333333333333115,0.11273584016586561674,1.44444444444444441977,1.38923008614401966021,6.08419432208738442114,15.41303062882264818256,6.51847889415429992965,7.47342440823140474748,21.93150952297694900039,0.18597699563573447112,0.81402300436426544561,0.70123710265070704484,0.29876289734929301067,0.25407298450438720039,0.74592701549561279961,1.23780557025418169736,0.29655409905604873666,0.00831388305595090991,-0.01030427602741645909,-0.00535786679586769399,-0.00484495435311584500,0.00250281614801079822,0.18450302363175105635,0.86665267931115363975,0.73540267545774584690,0.68416546419464430162,0.22854185562930218190,-1.23941016488664623729,-0.66876198680952725351,-0.60339900341637608960,0.30216891472731505219,4.71593416228875650376,4.02720168855454385692,3.75621099300276384270,1.24105631393580950750,0.05600000000000000117,0.09866666666666668029,0.05866666666666667251,0.01866666666666666821,0.15199999999999999623,0.05364018471397605931,0.09483064744133445911,0.05599773819621147591,0.01785844877956837065,0.14628216002261804074,0.12800000000000000266,0.02933333333333333279,0.02933333333333333279,0.04799999999999999406,0.19999999999999998335,0.12288530769955706423,0.02805466025822260165,0.02794307793798887773,0.04580152671755725186,0.19208368674017528566,-0.26941808938805822393,-0.00664705402939641272,0.03275082533925677275,0.07443807318728604128
X1004,X1004_13,123.33590622363411171136,66.71860746026375466045,34.00000000000000000000,0.01726928423070457977,0.00939257061023724207,59.52380952380952550129,126.00000000000000000000,0.89683082413721437742,1.00000000000000000000,0.82429877797163508824,26.00000000000000000000,0.81069576121227304721,19.00000000000000000000,0.80024360059516064236,15.00000000000000000000,0.70824001051069829238,12.00000000000000000000,2.35294117647058831366,0.58823529411764707842,0.58823529411764685637,0.29411764705882359472,1.17647058823529437888,3.49206349206349209169,1.58730158730158721347,2.53968253968253865338,0.47619047619047633058,0.31746031746031749821,0.31746031746031716514,0.15873015873015874910,0.31746031746031749821,0.31746031746031749821,0.47619047619047633058,17.00000000000000000000,0.00000000000000000000,1.47058823529411775155,0.88235294117647022905,0.88235294117647078416,1.76470588235294156831,1.26984126984126977078,0.79365079365079360674,0.79365079365079338469,6.19047619047619246402,0.95238095238095266115,0.00000000000000000000,0.00000000000000000000,0.00000000000000000000,0.00000000000000000000,0.00000000000000000000,11.00000000000000000000,0.88235294117647056211,0.29411764705882353921,0.88235294117647022905,1.17647058823529437888,1.76470588235294156831,0.31746031746031744269,0.15873015873015872135,0.00000000000000000000,0.15873015873015874910,0.15873015873015874910,6.66666666666666074548,2.38095238095238137532,0.15873015873015874910,0.00000000000000000000,0.00000000000000000000,8.00000000000000000000,1.47058823529411775155,0.58823529411764707842,0.58823529411764685637,1.17647058823529437888,1.17647058823529437888,0.00000000000000000000,0.00000000000000000000,0.00000000000000000000,0.00000000000000000000,0.00000000000000000000,1.26984126984126866056,7.14285714285714501415,0.63492063492063499641,0.31746031746031749821,0.63492063492063499641,20.00000000000000000000,1.17647058823529415683,0.58823529411764707842,0.88235294117647022905,1.47058823529411797360,0.88235294117647078416,0.00000000000000000000,0.00000000000000000000,0.00000000000000000000,0.63492063492063499641,3.17460317460317531513,5.71428571428570908353,0.15873015873015874910,0.00000000000000000000,0.15873015873015874910,0.15873015873015874910,16.00000000000000000000,-0.00086128898356751952,-0.00229867800708916667,-0.06712883426633582673,-0.16667940320594998305,-0.23973496184019305044,-0.20618776722039464100,-0.00776153563758377654,0.09243313897081673058,0.26207344500573598323,0.43653260805296950631,0.57443593329700826100,0.67703395540952104881,0.69845697917029803126,0.68032276046383233226,0.64664746410471429794,0.66018718869746306765,0.69165206929601541486,0.75583479105132800324,0.80387117441813982222,0.85938344240049391320,0.88532755493507087063,0.92098518915485982905,0.92921478949662772440,0.94992304366099189483,0.94224757512370682644,0.09704536777419826843,0.98399999999999998579,0.19999999999999998335,0.78400000000000014122,0.11999999999999999556,0.07976466153623297528,0.26400000000000001243,-0.03983257634701242722,0.47999999999999998224,0.21236390242080116497,0.00384212484925453924,0.28000000000000002665,0.50400000000000000355,4.58402985972062992914,0.20322580645161292257,0.79677419354838718846,0.12189964157706094372,0.26828673835125443903,0.48766666666666669272,0.28444086021505371464,0.51233333333333330728,0.10133333333333333082,0.10305734767025089005,0.19733333333333333282,0.20033691756272400952,0.29866666666666669139,0.30339426523297491345,1.95299145299145293642,0.07466666666666665897,0.07588172043010753265,0.11466666666666665286,0.11643369175627239775,0.18933333333333335347,0.19231541218637993040,1.53703703703703697947,0.05066666666666666541,0.05148387096774193622,0.06400000000000000133,0.06506093189964157197,0.11466666666666665286,0.11654480286738351513,1.26984126984126977078,1.46744420152646881661,7.05001804239089313597,16.88722968372805155468,6.00398178226029077820,8.51746224391736284076,22.89121146598834499741,0.17209399265141378521,0.82790600734858621479,0.73685540703721896794,0.26314459296278086553,0.27133039251504736944,0.72866960748495257505,1.22060401234593896014,0.30578545199263590382,0.00922091643253599401,-0.01182290639255360355,-0.00249162086609437195,-0.00218525901225049201,0.00267771803919975926,0.20236388266197738450,0.96233697417247754391,0.66903776961696959091,0.58264364871836293869,0.21737595377682186748,-1.28335347024578072528,-0.28492698999230753332,-0.24974826500266744667,0.29126302966607237055,4.78684943529233386528,3.35543262505610639934,2.92952815810745414993,1.07866090225265920388,0.07200000000000000844,0.09866666666666668029,0.09333333333333333759,0.02400000000000000397,0.11466666666666668062,0.07310394265232973698,0.10025806451612902237,0.09403225806451613600,0.02419713261648745450,0.11752688172043011805,0.12800000000000000266,0.02933333333333333279,0.06400000000000000133,0.08800000000000000877,0.20266666666666666163,0.13012186379928314395,0.02986379928315412158,0.06416845878136201442,0.08836559139784945505,0.20589247311827960085,-1.03994124491687811584,-0.00514239472294869809,-0.74867821525080568978,0.14498638649637521358
X1004,X1004_14,130.04757157465684258568,68.79687881976050789490,33.00000000000000000000,0.01479991759446475617,0.01127768618892623954,58.59375000000000000000,128.00000000000000000000,0.89988760582474003336,5.00000000000000000000,0.81577258088150816917,26.00000000000000000000,0.79765495832184529768,19.00000000000000000000,0.79077263039515044429,15.00000000000000000000,0.66785828168701288909,12.00000000000000000000,2.00000000000000000000,0.66666666666666662966,0.33333333333333320381,0.66666666666666674068,1.33333333333333348136,3.53846153846153832490,1.23076923076923083755,1.07692307692307642775,2.00000000000000044409,0.30769230769230776490,0.30769230769230743183,0.30769230769230776490,0.30769230769230776490,0.30769230769230776490,0.61538461538461552980,15.00000000000000000000,0.00000000000000000000,1.00000000000000000000,1.33333333333333281523,0.66666666666666674068,2.00000000000000044409,1.38461538461538458122,0.92307692307692312816,5.99999999999999822364,1.69230769230769273470,0.00000000000000000000,0.00000000000000000000,0.00000000000000000000,0.00000000000000000000,0.00000000000000000000,0.00000000000000000000,9.00000000000000000000,1.33333333333333325932,0.33333333333333331483,0.33333333333333320381,1.33333333333333348136,1.66666666666666718477,0.15384615384615385469,0.15384615384615385469,0.15384615384615379918,0.15384615384615388245,1.69230769230769273470,6.15384615384614885869,1.53846153846153899103,0.00000000000000000000,0.00000000000000000000,0.00000000000000000000,5.00000000000000000000,1.33333333333333325932,0.66666666666666662966,0.66666666666666640761,0.66666666666666674068,1.66666666666666718477,0.00000000000000000000,0.00000000000000000000,0.00000000000000000000,0.00000000000000000000,0.00000000000000000000,0.92307692307692235101,6.76923076923077093880,1.23076923076923105960,0.46153846153846167510,0.61538461538461552980,2.00000000000000000000,1.33333333333333325932,0.66666666666666662966,0.33333333333333320381,1.33333333333333348136,1.33333333333333348136,0.00000000000000000000,0.00000000000000000000,0.00000000000000000000,0.15384615384615388245,1.84615384615384670042,7.53846153846153121947,0.30769230769230776490,0.00000000000000000000,0.15384615384615388245,0.00000000000000000000,13.00000000000000000000,-0.00286060640515049119,-0.03280326714452200254,-0.13364124929293430544,-0.25843515824734297759,-0.32435257927591210070,-0.28924615930619240745,-0.02096585561277039197,0.05451864083985983461,0.19525648561439859496,0.34440564330865836018,0.46693537963060927076,0.54551562710474688078,0.54842112777083029673,0.54293765300153995490,0.54586860424119831858,0.59635120331115776260,0.64981582780745050787,0.72374314939935568969,0.77229746860944914477,0.82408681303208641822,0.84756180454402996194,0.88229660135884990790,0.89019898372064343306,0.91815864840411143266,0.92700350294374456173,0.12238358574131802392,1.02666666666666661634,0.18666666666666667518,0.83999999999999996891,0.10399999999999999523,0.07464121081767471910,0.25333333333333335480,-0.03057142327167157794,0.46399999999999996803,0.29680969709437898807,0.00007424342394835026,0.27733333333333337611,0.56266666666666664831,3.17234341441449485544,0.18180174894003633956,0.81819825105996368819,0.10130823490813649357,0.24676995003028467934,0.45195052241066019372,0.27014877347062382640,0.54804947758933975077,0.10666666666666667351,0.10387233747223904856,0.39733333333333337167,0.38704194427619625918,0.50400000000000000355,0.49091428174843532162,3.73076923076923128164,0.08266666666666666607,0.08049351403189985987,0.14933333333333331794,0.14544120987280437229,0.23199999999999998401,0.22593472390470423217,1.80909090909090886079,0.05066666666666667235,0.04932174944478093931,0.08000000000000000167,0.07792941146779729100,0.13066666666666668095,0.12725116091257823725,1.58730158730158721347,1.48469202769804353714,7.09431614985627945202,18.90015888096582941102,8.40025364583073219649,8.57900817755432321121,27.30041252679656338387,0.17380943780124402664,0.82619056219875597336,0.69159972216053722249,0.30840027783946272200,0.23881955437846250079,0.76118044562153741595,0.98263999546879776670,0.35705234728858514792,0.00877410818704015862,-0.00987393890758717953,-0.00249601287250929759,-0.00222018078408416563,0.00233259003034225199,0.17292430675381584293,0.91829957468075151805,0.72448692783849677479,0.66152192754443850387,0.32458289256718214633,-1.12589347574788201101,-0.26356933247831165756,-0.23460737720433702536,0.26690436329584132924,5.40539750622159953508,4.32843312331792784420,3.96478909957638459005,1.90856740526589097051,0.05066666666666667235,0.10133333333333333082,0.09600000000000001588,0.02133333333333333262,0.11733333333333333115,0.04936181354734504173,0.09870406824146982228,0.09317049010700585721,0.02069358217242075679,0.11475589289319604314,0.13600000000000000977,0.03466666666666667201,0.06133333333333332998,0.08266666666666666607,0.19999999999999998335,0.13243993539269130477,0.03373586715122148250,0.05943462295578436777,0.08012820512820513497,0.19488409802140116422,-0.89462112936107451855,-0.00469627110992621322,-0.62771676606523330033,0.10524167533484139747
X1004,X1004_15,131.25245259388807994583,70.20878844307270583158,33.00000000000000000000,0.01145352439782622647,0.01195279280357662392,60.00000000000000000000,125.00000000000000000000,0.89775030031865754587,5.00000000000000000000,0.82179813837262849496,26.00000000000000000000,0.80825160278507401923,19.00000000000000000000,0.81889353015314125805,15.00000000000000000000,0.69770949597641584994,12.00000000000000000000,2.00000000000000000000,0.66666666666666662966,0.66666666666666640761,0.66666666666666674068,1.00000000000000022204,3.69230769230769251266,1.23076923076923083755,2.46153846153846078693,0.46153846153846167510,0.30769230769230776490,0.30769230769230743183,0.30769230769230776490,0.30769230769230776490,0.30769230769230776490,0.61538461538461552980,15.00000000000000000000,0.00000000000000000000,1.00000000000000000000,0.99999999999999966693,1.33333333333333348136,1.66666666666666718477,1.53846153846153854694,0.61538461538461541878,2.76923076923076827427,4.92307692307692423839,0.15384615384615388245,0.00000000000000000000,0.00000000000000000000,0.00000000000000000000,0.00000000000000000000,0.00000000000000000000,9.00000000000000000000,1.00000000000000000000,0.33333333333333331483,0.33333333333333320381,1.33333333333333348136,2.00000000000000044409,0.15384615384615385469,0.15384615384615385469,0.15384615384615379918,0.15384615384615388245,0.61538461538461552980,6.76923076923076294520,2.00000000000000044409,0.00000000000000000000,0.00000000000000000000,0.00000000000000000000,6.00000000000000000000,1.33333333333333325932,0.33333333333333331483,0.66666666666666640761,1.00000000000000022204,1.66666666666666718477,0.00000000000000000000,0.00000000000000000000,0.00000000000000000000,0.00000000000000000000,0.00000000000000000000,0.76923076923076860734,7.53846153846154010125,0.61538461538461552980,0.46153846153846167510,0.61538461538461552980,17.00000000000000000000,1.00000000000000000000,1.00000000000000000000,0.66666666666666640761,1.33333333333333348136,1.00000000000000022204,0.00000000000000000000,0.00000000000000000000,0.00000000000000000000,0.46153846153846167510,2.00000000000000044409,7.07692307692307043254,0.15384615384615388245,0.15384615384615388245,0.15384615384615388245,0.00000000000000000000,13.00000000000000000000,-0.00100199772620571635,-0.02249891175373983782,-0.11382188741443283186,-0.23373751994796629350,-0.30310859370687637249,-0.27301276970340904171,-0.01804538306738722939,0.06953810775252286525,0.22721214051845145532,0.39195242971516569552,0.52332579495156583693,0.60802140926821079958,0.60980460830378624415,0.59422960653769174577,0.58485296864767288838,0.62410729297155376205,0.67301355813191054978,0.74124280126727182250,0.78534865516981489098,0.83744323253818464536,0.86044063040920337748,0.89290267310302717796,0.89854830272959884674,0.92108846391966547884,0.92156605688237447360,0.11987710824519373642,1.02666666666666661634,0.18400000000000002465,0.84266666666666667496,0.10133333333333333082,0.07747396103831878655,0.25066666666666664876,-0.03389146664901084710,0.45866666666666661145,0.27432948719053867892,0.00141281966086570510,0.27466666666666667007,0.56800000000000006040,3.52738708235305331584,0.17926999959576361832,0.82073000040423638168,0.09877769019322500677,0.24434700662947692051,0.44701281934675396457,0.26774281975099040176,0.55298718065324603543,0.10133333333333333082,0.09869368481688090000,0.37600000000000005640,0.36636639481768940030,0.47733333333333333171,0.46506007963457030030,3.71153846153846123102,0.07466666666666665897,0.07269370502870077522,0.13600000000000000977,0.13266027973158703301,0.21066666666666666874,0.20535398476028779435,1.82592592592592595224,0.05066666666666667235,0.04929789190718732866,0.07466666666666665897,0.07287561140755112465,0.12533333333333332438,0.12217350331473846026,1.48412698412698418338,1.26426790604784566874,7.02088544255447022380,18.28778451314374464687,7.91993885051293844413,8.28515334860231611458,26.20772336365668664371,0.15323005464113845231,0.84676994535886151994,0.69739818020260402331,0.30260181979739592117,0.24014052480890812902,0.75985947519109198200,1.11457825104646146563,0.32728138847945414946,0.00906297793645660654,-0.01088089102891783531,-0.00273730648599076120,-0.00240130627619030345,0.00265276596943444165,0.18652123470055145815,0.94957049859311626339,0.69392716511741880936,0.65287038728874957627,0.29117750893617388996,-1.20064154260689082143,-0.30717645407805632685,-0.26959366696062553315,0.29296404322897345862,5.10454959245362704934,3.68607491969093814532,3.45982054227246882405,1.56561436760771433008,0.05333333333333333676,0.10133333333333333082,0.09866666666666668029,0.01333333333333333419,0.11999999999999999556,0.05198606395019807896,0.09869368481688090000,0.09638385277710403987,0.01299304208100897362,0.11695064273587192638,0.13066666666666668095,0.02933333333333333279,0.06933333333333333015,0.08266666666666666607,0.20266666666666668939,0.12728393564556553241,0.02859025082868461506,0.06779360194841943521,0.08078664402942840883,0.19773728676530033521,-0.91683546479718236455,-0.00505691521582580638,-0.62387142156820873939,0.11024181211884702403
X1004,X1004_16,127.84456502362952790008,67.24945147299624181869,33.00000000000000000000,0.01740949881233835525,0.01259212194791416856,58.59375000000000000000,128.00000000000000000000,0.88950470870066822293,5.00000000000000000000,0.81651800339259195116,26.00000000000000000000,0.80664457626696695058,19.00000000000000000000,0.80528299532608083044,15.00000000000000000000,0.68393484506106183574,12.00000000000000000000,2.00000000000000000000,0.66666666666666662966,0.66666666666666640761,0.33333333333333337034,1.33333333333333348136,4.30769230769230748734,1.07692307692307687184,2.46153846153846078693,0.30769230769230776490,0.30769230769230776490,0.30769230769230743183,0.30769230769230776490,0.15384615384615388245,0.30769230769230776490,0.46153846153846167510,15.00000000000000000000,0.00000000000000000000,1.00000000000000000000,0.99999999999999966693,1.33333333333333348136,1.66666666666666718477,1.23076923076923083755,0.61538461538461541878,0.61538461538461519673,6.61538461538461675104,0.92307692307692335021,0.00000000000000000000,0.00000000000000000000,0.00000000000000000000,0.00000000000000000000,0.00000000000000000000,9.00000000000000000000,1.00000000000000000000,0.33333333333333331483,0.33333333333333320381,1.66666666666666718477,1.66666666666666718477,0.15384615384615385469,0.15384615384615385469,0.15384615384615379918,0.15384615384615388245,0.76923076923076949551,6.46153846153845545786,2.15384615384615418776,0.00000000000000000000,0.00000000000000000000,0.00000000000000000000,6.00000000000000000000,1.33333333333333325932,0.66666666666666662966,0.33333333333333320381,1.00000000000000022204,1.66666666666666718477,0.00000000000000000000,0.00000000000000000000,0.00000000000000000000,0.00000000000000000000,0.00000000000000000000,1.07692307692307598366,7.38461538461538680167,0.46153846153846167510,0.30769230769230776490,0.76923076923076949551,18.00000000000000000000,1.00000000000000000000,1.00000000000000000000,0.66666666666666640761,1.33333333333333348136,1.00000000000000022204,0.00000000000000000000,0.00000000000000000000,0.00000000000000000000,0.46153846153846167510,1.84615384615384670042,7.23076923076922462030,0.15384615384615388245,0.15384615384615388245,0.15384615384615388245,0.00000000000000000000,13.00000000000000000000,-0.00089109904274503192,-0.02328279605714497769,-0.11012696613007974533,-0.23247881397335443121,-0.31226207112460341309,-0.29257061797660610658,-0.01763299589459045233,0.09251700309865419636,0.28109466782948344665,0.46278779669786496154,0.59906685221862054913,0.67795508944392601780,0.66682772757544184206,0.64172459131086201367,0.63105839119774065349,0.67579362046538027364,0.72929151339832964940,0.79922779898672990928,0.84108761782592589284,0.88787542083459447539,0.90371235816640815841,0.92572945376681514684,0.92443685050727109065,0.94376280262410627842,0.93807627183269581828,0.08719717706518083367,1.02400000000000002132,0.18666666666666667518,0.83733333333333337389,0.10666666666666667351,0.07679083988700892427,0.25066666666666664876,-0.03931192648327615918,0.46399999999999996803,0.21870459663185803922,0.00410544256930590445,0.27733333333333337611,0.56000000000000005329,4.33091731060597684433,0.18228085571835572765,0.81771914428164427235,0.10414313695563696960,0.24479103072853072853,0.45307730463980461222,0.27079644892144888457,0.54692269536019544329,0.10133333333333333082,0.09901493182743181798,0.20266666666666666163,0.19782572751322749505,0.30399999999999999245,0.29684065934065934078,2.00427350427350425832,0.07466666666666665897,0.07292811355311355770,0.11733333333333333115,0.11456107549857548478,0.19200000000000003175,0.18748918905168907023,1.57407407407407418098,0.04800000000000000794,0.04688263125763125760,0.06400000000000000133,0.06251017501017501476,0.11200000000000000233,0.10939280626780627237,1.33333333333333325932,1.31594093488415819770,6.65812660569270509114,16.17925103546196297088,5.84078053675216768426,7.97406754057686395498,22.02003157221412621425,0.16518465744837304565,0.83481534255162692659,0.73360376420380057905,0.26639623579619947646,0.26588707493682045557,0.73411292506317948892,1.26512237087117118683,0.29286619842376665490,0.00902273919249538779,-0.01125881696570215328,-0.00232155315265057194,-0.00208255368290001996,0.00275839066169673375,0.19006411202099057767,0.93467984157909833609,0.63845992487120317715,0.57298857883574239036,0.21912462343241700946,-1.24834800126126488351,-0.27106160747520396948,-0.24239466892146466215,0.30662891489647475796,4.93458718933627693559,3.43217410933137045959,3.08901731129077283811,1.15250909815317448270,0.05866666666666666557,0.10133333333333333082,0.09333333333333332371,0.01866666666666666821,0.11466666666666668062,0.05726050569800569812,0.09897486772486772943,0.09062754375254374051,0.01807018213268213325,0.11261065323565322416,0.12800000000000000266,0.02666666666666666838,0.06666666666666666574,0.08533333333333333048,0.19999999999999998335,0.12502035002035002953,0.02604548229548229663,0.06458206145706145429,0.08265224358974358754,0.19526289682539679782,-1.04152063976107100984,-0.00500683232364705112,-0.73489172486459608535,0.14670527654076254143
X1004,X1004_17,125.46866030795645485796,68.16928306647862711998,34.00000000000000000000,0.01626003435715704312,0.00911941571711346287,60.00000000000000000000,125.00000000000000000000,0.90315108126352594553,79.00000000000000000000,0.82075425160660020474,26.00000000000000000000,0.80684254110567010798,19.00000000000000000000,0.81747232762487254121,15.00000000000000000000,0.70062765520068914782,12.00000000000000000000,2.18750000000000000000,0.62500000000000000000,0.62499999999999977796,0.31250000000000005551,1.25000000000000022204,3.90625000000000000000,1.09375000000000000000,2.81249999999999911182,0.31250000000000005551,0.31250000000000005551,0.31249999999999972244,0.15625000000000002776,0.31250000000000005551,0.31250000000000005551,0.46875000000000011102,16.00000000000000000000,0.00000000000000000000,1.25000000000000000000,0.93749999999999966693,1.25000000000000022204,1.56250000000000044409,1.25000000000000000000,0.62500000000000000000,1.09374999999999955591,6.09375000000000177636,0.93750000000000022204,0.00000000000000000000,0.00000000000000000000,0.00000000000000000000,0.00000000000000000000,0.00000000000000000000,10.00000000000000000000,0.93750000000000000000,0.31250000000000000000,0.62499999999999977796,1.25000000000000022204,1.87500000000000044409,0.15625000000000000000,0.15625000000000000000,0.15624999999999994449,0.15625000000000002776,0.46875000000000011102,6.56249999999999378275,2.34375000000000044409,0.00000000000000000000,0.00000000000000000000,0.00000000000000000000,7.00000000000000000000,1.25000000000000000000,0.31250000000000000000,0.62499999999999977796,1.25000000000000022204,1.56250000000000044409,0.00000000000000000000,0.00000000000000000000,0.00000000000000000000,0.00000000000000000000,0.00000000000000000000,1.24999999999999888978,7.34375000000000177636,0.31250000000000005551,0.31250000000000005551,0.78125000000000022204,19.00000000000000000000,0.93750000000000000000,0.62500000000000000000,1.24999999999999955591,1.25000000000000022204,0.93750000000000022204,0.00000000000000000000,0.00000000000000000000,0.00000000000000000000,0.62500000000000011102,1.56250000000000044409,7.34374999999999378275,0.15625000000000002776,0.15625000000000002776,0.00000000000000000000,0.15625000000000002776,14.00000000000000000000,-0.00953673921691525206,-0.00919868724583525026,-0.07451400107924167904,-0.18041604658375665071,-0.25110553606929675308,-0.22604814593534475198,-0.00994307109800962249,0.09364027005163079453,0.26000602801034566891,0.42357946802208185089,0.54896320497344386347,0.62994585128270141894,0.62754165451853360924,0.60389504106447144949,0.58350016146068328649,0.61513061349085729201,0.65852592303382873062,0.72504902366762213894,0.76794806693556028065,0.81828817648340634872,0.83945738009144776903,0.87062473117363636810,0.87789856025787871285,0.90884237691040559159,0.91744020046608998342,0.09062537027457753802,1.02400000000000002132,0.23200000000000001177,0.79200000000000003730,0.15199999999999999623,0.05106472050929861117,0.29599999999999998535,-0.02619483069228817351,0.50800000000000000711,0.49675714967128042909,0.00258773314845189839,0.27600000000000002309,0.51600000000000001421,1.97301603201404285315,0.22690873525276605838,0.77309126474723388611,0.14866434378629500568,0.28950424842594291164,0.49639342258084229176,0.26948468732807628889,0.50360657741915759722,0.23200000000000001177,0.22690873525276605838,0.78400000000000003020,0.76526682560058678639,1.01600000000000001421,0.99217556085335290028,3.37931034482758629878,0.10799999999999999878,0.10578274955681887803,0.31199999999999999956,0.30820954826089613787,0.42000000000000003997,0.41399229781771501591,2.86538461538461541878,0.06400000000000000133,0.06259551317317685326,0.09199999999999999845,0.08982822910935875371,0.15599999999999999978,0.15242374228253560697,1.43750000000000000000,0.90934526756548672566,4.41347664623551416696,10.54610948425984950916,3.63397876869810598777,5.32282191380100133671,14.18008825295795460875,0.17101794489893218376,0.82898205510106781624,0.74214889321789423438,0.25785110678210576562,0.27315325420113212296,0.72684674579886787704,1.28576265067561390509,0.28922153113125392832,0.00599056127812080952,-0.00763361949177332466,-0.00284738993677557950,-0.00256785462675640508,0.00184677264201002500,0.48065170579993388156,0.97139096978038308450,0.83781168612087153491,0.78350559179033152368,0.49884395615353571696,-1.27577934857461672280,-0.50084565656128965383,-0.45069244640790268042,0.30950429965869563631,2.02101495786920404285,1.74284737483513674228,1.62977765042306788068,1.03786404992146708004,0.10399999999999999523,0.10000000000000000555,0.07200000000000000844,0.02400000000000000050,0.12800000000000000266,0.10171770890641237961,0.09795831041017177832,0.06828045724066263145,0.02286203313160951184,0.12733052142551498642,0.12800000000000000266,0.02800000000000000058,0.04399999999999999745,0.06800000000000000488,0.19600000000000000755,0.12519102634635370652,0.02723271593618191780,0.04104774130448071018,0.06390977443609022202,0.19124029586160523619,-0.63374554526411974731,-0.00416424305205788034,-0.32424124560542416651,0.11065103954094789029
X1004,X1004_18,127.45399476224017121240,68.29806000763917950280,33.00000000000000000000,0.01377890311122525850,0.01415631889928463394,56.81818181818182011966,132.00000000000000000000,0.88250704615969188804,5.00000000000000000000,0.80739733151605752592,26.00000000000000000000,0.79943837485430591094,19.00000000000000000000,0.79732782807426239025,15.00000000000000000000,0.67904930245923333931,13.00000000000000000000,2.50000000000000000000,0.35714285714285715079,0.71428571428571407953,0.35714285714285720630,1.07142857142857161890,4.24242424242424220893,1.06060606060606055223,2.27272727272727204095,0.45454545454545464134,0.30303030303030309422,0.30303030303030276116,0.30303030303030309422,0.30303030303030309422,0.15151515151515154711,0.60606060606060618845,14.00000000000000000000,0.00000000000000000000,1.07142857142857139685,1.07142857142857095276,1.07142857142857161890,1.78571428571428625354,1.21212121212121215486,0.75757575757575756903,1.21212121212121171077,6.66666666666666873908,0.15151515151515154711,0.00000000000000000000,0.00000000000000000000,0.00000000000000000000,0.00000000000000000000,0.00000000000000000000,9.00000000000000000000,0.71428571428571430157,0.35714285714285715079,0.71428571428571407953,1.07142857142857161890,2.14285714285714323779,0.30303030303030303871,0.15151515151515151936,0.15151515151515146385,0.15151515151515154711,0.60606060606060618845,6.51515151515150936490,2.12121212121212154855,0.00000000000000000000,0.00000000000000000000,0.00000000000000000000,6.00000000000000000000,1.42857142857142860315,0.35714285714285715079,0.71428571428571407953,0.71428571428571441260,1.78571428571428625354,0.00000000000000000000,0.00000000000000000000,0.00000000000000000000,0.00000000000000000000,0.00000000000000000000,0.90909090909090828347,7.72727272727272929131,0.45454545454545464134,0.30303030303030309422,0.60606060606060618845,17.00000000000000000000,1.07142857142857139685,0.71428571428571430157,1.07142857142857095276,1.42857142857142882519,0.71428571428571441260,0.00000000000000000000,0.00000000000000000000,0.00000000000000000000,0.60606060606060618845,1.81818181818181856535,7.12121212121211488721,0.00000000000000000000,0.15151515151515154711,0.15151515151515154711,0.15151515151515154711,13.00000000000000000000,0.02581042388813304875,0.02067028627999592527,-0.02740477367715896118,-0.11072079243507781943,-0.18646301972742107544,-0.21136872122018088294,-0.01418335960806968443,0.09003026342605006949,0.28841191850919872808,0.46756460594215898396,0.60845145755339491433,0.68395158104276043698,0.66806227518385552511,0.64255537317629085603,0.63772777579194839248,0.68305703770006742648,0.74333010006955968496,0.80619404243108350183,0.84890703036850423402,0.88943615479561122239,0.89842824221842265686,0.91880273642818244273,0.91736655472136996448,0.92220816198409438780,0.93201092358191461873,0.08704111556674325179,1.09200000000000008171,0.18399999999999999689,0.90799999999999991829,0.10399999999999999523,0.07771144087226605768,0.24799999999999999822,-0.03641354536685020848,0.46799999999999997158,0.25448485850726909607,0.00191000142103528447,0.28400000000000003020,0.62399999999999999911,3.85250719051900247791,0.16868149580915539620,0.83131850419084463155,0.09534171502256608144,0.22735332043842682026,0.42867504835589942402,0.25999355254674405558,0.57132495164410057598,0.10399999999999999523,0.09534171502256608144,0.29999999999999998890,0.27296905222437140015,0.40400000000000002576,0.36831076724693745383,2.88461538461538458122,0.07599999999999999811,0.06979368149580915393,0.12800000000000000266,0.11710186976144422444,0.20400000000000001465,0.18689555125725337836,1.69444444444444441977,0.05200000000000000455,0.04779174725983236643,0.06800000000000000488,0.06221792392005157796,0.11999999999999999556,0.11000967117988394439,1.32142857142857139685,1.30616802761074146666,6.78026613703590541604,17.20808740999118313653,6.51289369524274874834,8.08643416464664710475,23.72098110523393188487,0.16150097402685603676,0.83849902597314396324,0.72528954995036198916,0.27471045004963801084,0.25483738455543974988,0.74516261544456030563,1.30979132814861243261,0.28573017782611187521,0.00913714671678904355,-0.01111535525946827363,0.00126601069223608587,0.00104854990913838542,0.00249145092885824648,0.22382554568820844931,0.95962906574441242391,0.55961031004783134968,0.44593208760073532737,0.26842919237155055123,-1.21686205507578293350,0.13888836220318601100,0.11512168591636609549,0.27287846747615301934,4.28820512764687755691,2.50229245690370394328,1.99421777733509708597,1.20014186347530982246,0.05600000000000000117,0.09600000000000000200,0.13200000000000000622,0.03200000000000000067,0.07599999999999999811,0.05133784655061250646,0.08800773694390714996,0.12113152804642166038,0.02933591231463571897,0.06955190199871050249,0.12800000000000000266,0.03200000000000000067,0.10000000000000000555,0.13200000000000000622,0.20799999999999999045,0.11734364925854287587,0.02933591231463571897,0.09179561573178593448,0.12113152804642166038,0.19068343004513216288,-1.74375057067148819812,-0.00258285949234030292,-1.47087210319533490122,0.20920904275911145209
X1004,X1004_19,126.78906075885299742367,68.67557174344537429533,33.00000000000000000000,0.01370332714629615527,0.01238010955834953353,58.13953488372092692771,129.00000000000000000000,0.90132542456623609972,5.00000000000000000000,0.81260775220480430114,26.00000000000000000000,0.79911051038066194252,19.00000000000000000000,0.82731772618301724354,15.00000000000000000000,0.70267737373877725560,12.00000000000000000000,2.33333333333333348136,0.66666666666666662966,0.33333333333333320381,0.66666666666666674068,1.00000000000000022204,3.84615384615384625633,1.23076923076923083755,2.30769230769230659917,0.46153846153846167510,0.46153846153846167510,0.30769230769230743183,0.15384615384615388245,0.30769230769230776490,0.30769230769230776490,0.61538461538461552980,15.00000000000000000000,0.00000000000000000000,1.00000000000000000000,0.99999999999999966693,1.00000000000000022204,2.00000000000000044409,1.38461538461538458122,0.61538461538461541878,3.38461538461538324896,4.61538461538461586287,0.00000000000000000000,0.00000000000000000000,0.00000000000000000000,0.00000000000000000000,0.00000000000000000000,0.00000000000000000000,9.00000000000000000000,1.00000000000000000000,0.33333333333333331483,0.66666666666666640761,1.00000000000000022204,2.00000000000000044409,0.15384615384615385469,0.30769230769230770939,0.15384615384615379918,0.15384615384615388245,0.92307692307692335021,6.15384615384614885869,2.15384615384615418776,0.00000000000000000000,0.00000000000000000000,0.00000000000000000000,6.00000000000000000000,1.33333333333333325932,0.66666666666666662966,0.33333333333333320381,1.00000000000000022204,1.66666666666666718477,0.00000000000000000000,0.00000000000000000000,0.00000000000000000000,0.00000000000000000000,0.00000000000000000000,0.92307692307692235101,6.76923076923077093880,1.23076923076923105960,0.30769230769230776490,0.76923076923076949551,18.00000000000000000000,1.33333333333333325932,0.66666666666666662966,0.33333333333333320381,1.66666666666666718477,1.00000000000000022204,0.00000000000000000000,0.00000000000000000000,0.00000000000000000000,0.61538461538461552980,1.69230769230769273470,7.07692307692307043254,0.30769230769230776490,0.15384615384615388245,0.00000000000000000000,0.15384615384615388245,14.00000000000000000000,0.00104286702907265710,-0.01510820399156104048,-0.09475962910846418008,-0.21178481263798562551,-0.29214816398259385588,-0.27763816410462799356,-0.02683504762127455687,0.05118288685235408697,0.21309661183777106608,0.37929267324464527311,0.51495574661317666809,0.60759858960083235058,0.61427276319554113826,0.59867234425479265436,0.58640873160089623806,0.62734543163290357182,0.67886402246199228916,0.74802847178422970931,0.79309407772503082157,0.84257222810830401105,0.86209473526392932374,0.88969889568835502924,0.89353574345805508727,0.91587405541640476425,0.91537820297783956125,0.10981524519237127746,1.02666666666666661634,0.18933333333333335347,0.83733333333333337389,0.10933333333333333792,0.07636093592000935126,0.25600000000000000533,-0.03445591557434291019,0.47199999999999997513,0.25545618116713553203,0.00171478163862344890,0.28266666666666667718,0.55466666666666675223,3.71509037067455816228,0.18449650312205168046,0.81550349687794831954,0.10649378219608389429,0.24948265919099124610,0.45976019648288807273,0.27526369336083639228,0.54023980351711198278,0.10399999999999999523,0.10140353720375812341,0.36800000000000004929,0.35934608690377861651,0.47199999999999997513,0.46074962410753678155,3.53846153846153832490,0.07733333333333332338,0.07541874159780241615,0.13600000000000000977,0.13247857780203961542,0.21333333333333334703,0.20789731939984201770,1.76666666666666660745,0.04800000000000000794,0.04680163255558067448,0.07200000000000000844,0.07007640106126537816,0.11999999999999999556,0.11687803361684605263,1.50000000000000000000,1.45221832159242492111,6.83762110463611705313,18.13206998273351899797,7.44990385325877024769,8.28983942622854108606,25.58197383599229013385,0.17533283967316296015,0.82466716032683695659,0.70760197488573173263,0.29239802511426810083,0.24499775037793769528,0.75500224962206230472,1.12662668552885314455,0.32358618923046755800,0.00885326746536516627,-0.01063159144686039691,0.00108823647269841906,0.00095241742375505123,0.00254912487746925898,0.20356259532156764647,0.92785946234651761610,0.55055892083528090719,0.44743623018198203090,0.27367073757704912795,-1.20172099738904880617,0.12370946717006636728,0.10882781875227894031,0.28921061253391977530,4.56348641033504609510,2.70880499008931208138,2.20133167298459619943,1.34658249075160330044,0.06133333333333332998,0.09600000000000001588,0.13333333333333333148,0.02933333333333333279,0.07199999999999999456,0.05969214964050322675,0.09360326511116134895,0.13009835990998483424,0.02828729983400550888,0.07020244883337099784,0.12800000000000000266,0.03200000000000000067,0.10133333333333333082,0.13066666666666668095,0.20266666666666666163,0.12480435348154846065,0.03120108837038711516,0.09889727153959770867,0.12718457137360322795,0.19738702020697421191,-1.72346889584531393069,-0.00259531038707547018,-1.43425828331139393335,0.19389440175086961049
X1004,X1004_20,129.69186017872095817438,70.06695100761406536094,33.00000000000000000000,0.01182549530513286179,0.01245681414036745906,56.17977528089887329088,133.50000000000000000000,0.87066178191665388741,6.00000000000000000000,0.79957728810877248815,26.00000000000000000000,0.78686133630767840508,20.00000000000000000000,0.77413583326607959822,16.00000000000000000000,0.64394717998125772240,13.00000000000000000000,2.14285714285714279370,0.71428571428571430157,0.35714285714285703977,0.71428571428571441260,1.07142857142857161890,4.39393939393939358951,1.21212121212121215486,2.12121212121212021628,0.45454545454545464134,0.30303030303030309422,0.30303030303030276116,0.15151515151515154711,0.30303030303030309422,0.30303030303030309422,0.45454545454545464134,14.00000000000000000000,0.00000000000000000000,1.07142857142857139685,1.07142857142857095276,0.71428571428571441260,2.14285714285714323779,1.21212121212121215486,0.75757575757575756903,2.27272727272727204095,5.75757575757575867925,0.00000000000000000000,0.00000000000000000000,0.00000000000000000000,0.00000000000000000000,0.00000000000000000000,0.00000000000000000000,8.00000000000000000000,1.07142857142857139685,0.35714285714285715079,0.35714285714285703977,1.42857142857142882519,1.78571428571428625354,0.15151515151515151936,0.15151515151515151936,0.15151515151515146385,0.15151515151515154711,0.60606060606060618845,6.66666666666666074548,2.12121212121212154855,0.00000000000000000000,0.00000000000000000000,0.00000000000000000000,5.00000000000000000000,1.42857142857142860315,0.71428571428571430157,0.35714285714285703977,1.07142857142857161890,1.42857142857142882519,0.00000000000000000000,0.00000000000000000000,0.00000000000000000000,0.00000000000000000000,0.00000000000000000000,0.90909090909090828347,7.72727272727272929131,0.30303030303030309422,0.45454545454545464134,0.60606060606060618845,16.00000000000000000000,1.42857142857142860315,0.71428571428571430157,0.35714285714285703977,1.42857142857142882519,1.07142857142857161890,0.00000000000000000000,0.00000000000000000000,0.00000000000000000000,0.45454545454545464134,2.42424242424242475380,6.66666666666666074548,0.15151515151515154711,0.15151515151515154711,0.00000000000000000000,0.15151515151515154711,13.00000000000000000000,0.00157783665746626719,-0.02481524853057002003,-0.11641150928242251228,-0.24749861260949157504,-0.33518391886960685611,-0.31872006395975754911,-0.01525598921547322191,0.10150623356832018385,0.28000648127986837999,0.44957874160914856887,0.58234103279150994936,0.65730300856877665883,0.64927958241237881953,0.63912377645833218232,0.64871451071752650464,0.70861004813157990601,0.76252362170549192744,0.82331765921752930737,0.85378014168539939632,0.88498624343902976275,0.88832666754901357109,0.90319081245053034479,0.89818382981095712392,0.91614795941788551570,0.91450648590778538249,0.07690014219493061798,1.07733333333333347603,0.18133333333333334636,0.89600000000000001865,0.10133333333333333082,0.08124185587439070044,0.24533333333333331994,-0.03688170564122509459,0.46933333333333332460,0.23979492504387214802,0.00158352176999509986,0.28800000000000003375,0.60799999999999998490,4.11854141703123399765,0.16840681221505149345,0.83159318778494861757,0.09412081542930873790,0.22783560964364571455,0.43563141253604015235,0.26722460032098865890,0.56436858746395979214,0.09866666666666666641,0.09157628616722222892,0.26400000000000001243,0.24429215325735800790,0.36266666666666669272,0.33586843942458016743,2.65598290598290587283,0.07199999999999999456,0.06685739710716849526,0.13066666666666668095,0.12119713601158967065,0.20266666666666666163,0.18805453311875816591,1.81481481481481488061,0.04800000000000000794,0.04457159807144566582,0.06933333333333334403,0.06431286784508198628,0.11733333333333333115,0.10888446591652763129,1.44444444444444441977,1.24113915324670864848,6.91835173356421773150,18.37395712726138086168,6.75496085142904334475,8.15949088681092682407,25.12891797869042420643,0.15213737949406408445,0.84786262050593597106,0.73102206282033688201,0.26897793717966311799,0.24517479599255251332,0.75482520400744756994,1.26964852243615688998,0.29438523255867421469,0.00964336120193043378,-0.01170662662494977545,0.00125471594290112631,0.00092883003776517148,0.00258705083847315942,0.18472502053657394172,0.96118401132579689428,0.57034615551504030950,0.43580940120553246508,0.25881305047985297962,-1.21368510000577334296,0.13000723658018326079,0.09608115766800245927,0.26820846186709995651,5.20977073350540731411,3.08838459601448578340,2.35949516637126199825,1.40013261858791193681,0.05333333333333333676,0.09600000000000001588,0.13066666666666668095,0.03733333333333333642,0.07200000000000000844,0.04954921735786307901,0.08914319614289133165,0.12140212411927493730,0.03459846913078486880,0.06676384823723884032,0.12800000000000000266,0.03200000000000000067,0.09866666666666668029,0.13600000000000000977,0.20799999999999999045,0.11885759485718842832,0.02971439871429710708,0.09168772540497784063,0.12628619453576270248,0.19305004277300152893,-1.70798195612105918606,-0.00270872259414549907,-1.43977349425395906302,0.20292188768409624711
X1004,X1004_21,128.36279185495629917568,69.66189021523692304072,33.00000000000000000000,0.01916485794110434418,0.01305424021985064111,58.36575875486381193014,128.50000000000000000000,0.90022385069198895824,5.00000000000000000000,0.81148495700548095577,25.00000000000000000000,0.79974741238740698623,19.00000000000000000000,0.82410508895373946192,15.00000000000000000000,0.69776203874425424267,12.00000000000000000000,2.14285714285714279370,0.71428571428571430157,0.71428571428571407953,0.35714285714285720630,1.07142857142857161890,4.24242424242424220893,1.21212121212121215486,2.27272727272727204095,0.30303030303030309422,0.30303030303030309422,0.30303030303030276116,0.30303030303030309422,0.15151515151515154711,0.30303030303030309422,0.60606060606060618845,14.00000000000000000000,0.00000000000000000000,1.07142857142857139685,1.07142857142857095276,1.07142857142857161890,1.78571428571428625354,1.36363636363636353543,0.60606060606060607743,0.60606060606060585538,6.66666666666666873908,0.75757575757575779107,0.00000000000000000000,0.00000000000000000000,0.00000000000000000000,0.00000000000000000000,0.00000000000000000000,9.00000000000000000000,0.71428571428571430157,0.71428571428571430157,0.35714285714285703977,1.42857142857142882519,1.78571428571428625354,0.30303030303030303871,0.15151515151515151936,0.15151515151515146385,0.15151515151515154711,0.60606060606060618845,6.51515151515150936490,2.12121212121212154855,0.00000000000000000000,0.00000000000000000000,0.00000000000000000000,5.00000000000000000000,1.42857142857142860315,0.71428571428571430157,0.35714285714285703977,0.71428571428571441260,1.78571428571428625354,0.00000000000000000000,0.00000000000000000000,0.00000000000000000000,0.00000000000000000000,0.00000000000000000000,0.90909090909090828347,7.57575757575757791074,0.60606060606060618845,0.30303030303030309422,0.60606060606060618845,17.00000000000000000000,1.07142857142857139685,1.07142857142857139685,0.71428571428571407953,1.42857142857142882519,0.71428571428571441260,0.00000000000000000000,0.00000000000000000000,0.00000000000000000000,0.60606060606060618845,2.12121212121212154855,6.81818181818181212606,0.15151515151515154711,0.00000000000000000000,0.15151515151515154711,0.15151515151515154711,13.00000000000000000000,0.00129952289334789913,-0.02071503796222883345,-0.10639666839946855526,-0.22869689106877699736,-0.31106051252615635194,-0.29578533884665653142,-0.01910606982953549568,0.08787391105475932107,0.27085306492926908284,0.44563672903809115056,0.57740215413549955681,0.65480945863146722274,0.64480228138986106501,0.62265207702804248324,0.61693095832344158058,0.66629476878491178393,0.72044039558579442417,0.78779725810702139199,0.82762463189290924603,0.86873540729004206096,0.87997037668487188000,0.90030500309342331722,0.89706163236108216186,0.91298033503062814287,0.90788977838323525749,0.09304888445681196163,1.12400000000000011013,0.20400000000000001465,0.91999999999999992895,0.12399999999999999911,0.05188461412072004064,0.26000000000000000888,-0.02401233838375443908,0.47999999999999998224,0.50030621334518143861,0.00099453927483211801,0.27600000000000002309,0.64399999999999990585,1.95687973518996072286,0.18220382036171509088,0.81779617963828488136,0.11082605161552530615,0.23216825848404795685,0.42826661247713881941,0.24606279211542370078,0.57173338752286118059,0.20400000000000001465,0.18220382036171509088,0.91199999999999992184,0.81065840276366585293,1.11600000000000010303,0.99286222312538097157,4.47846153846153782752,0.10799999999999999878,0.09655049786628733255,0.35999999999999998668,0.32196199959357851839,0.46799999999999997158,0.41851249745986585094,3.33241758241758212478,0.06800000000000000488,0.06086161349319244018,0.09600000000000000200,0.08565332249542775833,0.16400000000000000688,0.14651493598862019851,1.41666666666666651864,0.97742053604822176638,4.64940744715908937934,11.17989453203622218780,4.70014222320014241063,5.62682798320731158981,15.88003675523636282207,0.17372115255675224521,0.82627884744324786581,0.70506468384357456891,0.29493531615642543109,0.26215964665583479931,0.73784035334416508967,1.34276838634407913453,0.27798520513810809351,0.00607110753810136128,-0.00752370140529423637,0.00087886777389045712,0.00069892796677406555,0.00162715354375292387,0.47271544949588895079,0.97224360362586637052,0.70244937405038443412,0.61147526052262191065,0.51064591276224802208,-1.24005689838654120649,0.14533040133722052722,0.11576488285123333333,0.26845515564270405751,2.05935012650537441203,1.48827051828539280720,1.29555695518310587389,1.08149989024861126197,0.07200000000000000844,0.10000000000000000555,0.12800000000000000266,0.04000000000000000083,0.06800000000000000488,0.06462101198943304148,0.08903170087380612996,0.11420442999390367778,0.03568888437309489930,0.06048059337533021745,0.13200000000000000622,0.03200000000000000067,0.09600000000000000200,0.13600000000000000977,0.20400000000000001465,0.11758280837228204940,0.02855110749847591944,0.08565332249542775833,0.12134220686852265070,0.18182280024385288897,-1.76960733821769933272,-0.00146783478714266973,-1.50115218257499516419,0.21465533940781272859
