patient,trial,SP,DP,ppg_fft_peaks_0,ppg_fft_peaks_heights_0,ppg_fft_peaks_neighbor_avgs_0,hr_0,p2p_0,ppg_max_neighbor_mean_0,ppg_min_0,vpg_max_neighbor_mean_0,vpg_min_0,apg_max_neighbor_mean_0,apg_min_0,ppg3_max_neighbor_mean_0,ppg3_min_0,ppg4_max_neighbor_mean_0,ppg4_min_0,ppg_histogram_up_0,ppg_histogram_up_1,ppg_histogram_up_2,ppg_histogram_up_3,ppg_histogram_up_4,ppg_histogram_down_0,ppg_histogram_down_1,ppg_histogram_down_2,ppg_histogram_down_3,ppg_histogram_down_4,ppg_histogram_down_5,ppg_histogram_down_6,ppg_histogram_down_7,ppg_histogram_down_8,ppg_histogram_down_9,ppg_max_0,vpg_histogram_up_0,vpg_histogram_up_1,vpg_histogram_up_2,vpg_histogram_up_3,vpg_histogram_up_4,vpg_histogram_down_0,vpg_histogram_down_1,vpg_histogram_down_2,vpg_histogram_down_3,vpg_histogram_down_4,vpg_histogram_down_5,vpg_histogram_down_6,vpg_histogram_down_7,vpg_histogram_down_8,vpg_histogram_down_9,vpg_max_0,apg_histogram_up_0,apg_histogram_up_1,apg_histogram_up_2,apg_histogram_up_3,apg_histogram_up_4,apg_histogram_down_0,apg_histogram_down_1,apg_histogram_down_2,apg_histogram_down_3,apg_histogram_down_4,apg_histogram_down_5,apg_histogram_down_6,apg_histogram_down_7,apg_histogram_down_8,apg_histogram_down_9,apg_max_0,ppg3_histogram_up_0,ppg3_histogram_up_1,ppg3_histogram_up_2,ppg3_histogram_up_3,ppg3_histogram_up_4,ppg3_histogram_down_0,ppg3_histogram_down_1,ppg3_histogram_down_2,ppg3_histogram_down_3,ppg3_histogram_down_4,ppg3_histogram_down_5,ppg3_histogram_down_6,ppg3_histogram_down_7,ppg3_histogram_down_8,ppg3_histogram_down_9,ppg3_max_0,ppg4_histogram_up_0,ppg4_histogram_up_1,ppg4_histogram_up_2,ppg4_histogram_up_3,ppg4_histogram_up_4,ppg4_histogram_down_0,ppg4_histogram_down_1,ppg4_histogram_down_2,ppg4_histogram_down_3,ppg4_histogram_down_4,ppg4_histogram_down_5,ppg4_histogram_down_6,ppg4_histogram_down_7,ppg4_histogram_down_8,ppg4_histogram_down_9,ppg4_max_0,usdc_0,usdc_1,usdc_2,usdc_3,usdc_4,usdc_5,dsdc_0,dsdc_1,dsdc_2,dsdc_3,dsdc_4,dsdc_5,dsdc_6,dsdc_7,dsdc_8,dsdc_9,dsdc_10,dsdc_11,dsdc_12,dsdc_13,dsdc_14,dsdc_15,dsdc_16,dsdc_17,dsdc_18,ppg_mean_cycles_match_peak_59,Tc,Ts,Td,Tsteepest,Steepest,TNegSteepest,NegSteepest,TdiaRise,DiaRise,SteepDiaRise,TSystoDiaRise,TdiaToEnd,Ratio,Ts_norm,Td_norm,Tsteepest_norm,TNegSteepest_norm,TdiaRise_norm,TSystoDiaRise_norm,TdiaToEnd_norm,SW25,SW25_norm,DW25,DW25_norm,SWaddDW25,SWaddDW25_norm,DWdivSW25,SW50,SW50_norm,DW50,DW50_norm,SWaddDW50,SWaddDW50_norm,DWdivSW50,SW75,SW75_norm,DW75,DW75_norm,SWaddDW75,SWaddDW75_norm,DWdivSW75,S1,S2,S3,S4,AUCsys,AUCdia,S1_norm,S2_norm,S3_norm,S4_norm,AUCsys_norm,AUCdia_norm,SQI_skew,SQI_kurtosis,apg_a,apg_b,apg_c,apg_d,apg_e,ppg_a,ppg_b,ppg_c,ppg_d,ppg_e,ratio_apg_b,ratio_apg_c,ratio_apg_d,ratio_apg_e,ratio_ppg_b,ratio_ppg_c,ratio_ppg_d,ratio_ppg_e,T_a,T_b,T_c,T_d,T_e,T_a_norm,T_b_norm,T_c_norm,T_d_norm,T_e_norm,T_peak_a,T_peak_b,T_peak_c,T_peak_d,T_peak_e,T_peak_a_norm,T_peak_b_norm,T_peak_c_norm,T_peak_d_norm,T_peak_e_norm,AI,bd,bcda,sdoo
X1009,X1009_0,154.65711024245518956377,87.51436275201069747709,36.00000000000000000000,0.00762267447421339454,0.00424674480528695972,72.81553398058251502789,103.00000000000000000000,0.93948512313915932825,79.00000000000000000000,0.88276711571168886561,28.00000000000000000000,0.87894007699779008735,19.00000000000000000000,0.89857334195727833759,13.00000000000000000000,0.78928728452619556499,10.00000000000000000000,1.66666666666666674068,0.83333333333333337034,0.55555555555555535818,0.55555555555555569125,1.38888888888888928363,1.45161290322580649459,1.29032258064516125451,0.80645161290322553427,0.64516129032258073828,1.45161290322580671663,2.41935483870967527054,0.48387096774193560922,0.32258064516129036914,0.32258064516129036914,0.80645161290322608938,18.00000000000000000000,0.00000000000000000000,0.55555555555555558023,1.38888888888888839546,0.83333333333333348136,2.22222222222222276500,1.45161290322580649459,1.77419354838709675271,4.51612903225806228136,0.96774193548387121844,1.12903225806451645852,0.16129032258064501804,0.00000000000000000000,0.00000000000000000000,0.00000000000000000000,0.00000000000000000000,10.00000000000000000000,1.11111111111111116045,0.55555555555555558023,0.27777777777777767909,1.11111111111111138250,1.94444444444444486386,0.32258064516129031363,0.16129032258064515681,0.32258064516129020260,1.12903225806451645852,1.29032258064516147655,4.51612903225806050500,0.96774193548387121844,1.29032258064516147655,0.00000000000000000000,0.00000000000000000000,5.00000000000000000000,1.66666666666666674068,0.55555555555555558023,0.55555555555555535818,0.83333333333333348136,1.38888888888888928363,0.00000000000000000000,0.00000000000000000000,0.00000000000000000000,0.32258064516129036914,0.80645161290322608938,0.96774193548387021924,3.22580645161290435752,2.41935483870967793507,1.29032258064516147655,0.96774193548387121844,22.00000000000000000000,1.66666666666666674068,0.83333333333333337034,0.83333333333333303727,0.55555555555555569125,1.11111111111111138250,0.00000000000000000000,0.00000000000000000000,0.00000000000000000000,0.96774193548387121844,4.19354838709677490982,2.25806451612903025250,1.77419354838709719679,0.48387096774193560922,0.16129032258064518457,0.16129032258064518457,16.00000000000000000000,-0.00604718047803275583,-0.04136675460066692456,-0.13733957857061857011,-0.21736464434294935910,-0.24081503097265960500,-0.16540280819908553811,-0.01176588821311651961,0.02750575764050176841,0.12436163104023038872,0.24587554591166219109,0.33381465447418962045,0.37796932847976849601,0.33557414711467187241,0.25948564813913982396,0.18249930341022843616,0.18165172471814669541,0.23098207265000320065,0.33836469540806435319,0.44172375875578889781,0.55808078646250613986,0.64286191397301506445,0.72888628087591367244,0.77645509615333307973,0.84062029160330098421,0.89095030445046285994,0.30753525471396692126,0.82199999999999995293,0.18399999999999999689,0.63800000000000001155,0.09800000000000000377,0.05841457795897785077,0.25000000000000000000,-0.02760311000092965927,0.40400000000000002576,0.43439724147375696761,0.00929010562494553271,0.22000000000000000111,0.41799999999999998268,1.87948019906117114175,0.22384827717494765187,0.77615172282505240364,0.11921758994860080783,0.30413573196268794963,0.49148105844279460497,0.26763278126784695310,0.50851894155720533952,0.11799999999999999378,0.14356082238720729860,0.44199999999999994849,0.53764515514943833630,0.56000000000000005329,0.68120597753664580143,3.74523809523809525501,0.08599999999999999312,0.10463068722634684404,0.29199999999999998179,0.35482105463544638679,0.37800000000000000266,0.45945174186179327247,3.41818181818181798803,0.05600000000000000117,0.06812773653150580588,0.07799999999999999989,0.09487435750999428929,0.13400000000000000799,0.16300209404150009518,1.39285714285714301575,1.42751248503664585066,6.25337591450212748612,14.41410326346729320335,11.78615002593190652647,7.68088839953877311473,26.20025328939920328253,0.18791159663555545567,0.81208840336444454433,0.54980892065969111382,0.45019107934030877516,0.22614779682679081452,0.77385220317320924099,0.27279244531873464430,0.48039888029818306192,0.00651475512646326055,-0.00761051997602976704,-0.00651763013187572904,-0.00582054655709732249,0.00320030448803612644,0.18389410468140110488,0.79677314796909537442,0.81418955799709924470,0.80564602600374091157,0.40742886227028263235,-1.17688036076162250154,-1.01104048786995459608,-0.90287675591905269812,0.49438872191171540083,4.43248563997978006768,4.53527594887057183826,4.48721032308836065283,2.26763244454271184480,0.04399999999999999745,0.10599999999999999700,0.02600000000000000228,0.00800000000000000017,0.16000000000000000333,0.05351703788311441140,0.12895012373881592493,0.03164858176280220536,0.00973253379021511364,0.19465067580430231442,0.14000000000000001332,0.03400000000000000244,-0.00800000000000000017,0.00000000000000000000,0.16000000000000000333,0.17033123929183324741,0.04138111555301732247,-0.00973253379021511364,0.00000000000000000000,0.19465067580430231442,0.24264816111566922530,-0.00677892878315737059,0.73703688302738457061,0.00017757336388269604
X1009,X1009_1,148.36894294107705150054,80.05633522852568262351,34.00000000000000000000,0.00924182581428898559,0.00705929448028389667,69.44444444444444286546,108.00000000000000000000,0.94672647433353207536,79.00000000000000000000,0.88440580376676825036,27.00000000000000000000,0.87590172136521160517,18.00000000000000000000,0.90402422701018048112,13.00000000000000000000,0.81583310774937489729,9.00000000000000000000,1.84210526315789469010,0.78947368421052632748,0.52631578947368407029,0.52631578947368429233,1.31578947368421084185,2.29508196721311463762,1.14754098360655731881,0.81967213114754078340,0.65573770491803284877,2.29508196721311508171,0.81967213114754033931,0.32786885245901642438,0.49180327868852469209,0.32786885245901642438,0.81967213114754122749,19.00000000000000000000,0.00000000000000000000,0.78947368421052632748,1.05263157894736814058,1.05263157894736858466,2.10526315789473716933,1.47540983606557385421,0.65573770491803273774,6.06557377049180157513,1.80327868852459061166,0.00000000000000000000,0.00000000000000000000,0.00000000000000000000,0.00000000000000000000,0.00000000000000000000,0.00000000000000000000,11.00000000000000000000,1.31578947368421061981,0.26315789473684209065,0.52631578947368407029,0.78947368421052654952,2.10526315789473716933,0.16393442622950818444,0.32786885245901636887,0.16393442622950812892,0.32786885245901642438,1.80327868852459061166,5.24590163934425746106,0.98360655737704938417,0.98360655737704938417,0.00000000000000000000,0.00000000000000000000,6.00000000000000000000,1.31578947368421061981,0.78947368421052632748,0.52631578947368407029,0.78947368421052654952,1.57894736842105309904,0.00000000000000000000,0.00000000000000000000,0.00000000000000000000,0.00000000000000000000,0.65573770491803284877,0.65573770491803218263,4.42622950819672222877,2.13114754098360714707,1.14754098360655754085,0.98360655737704938417,2.00000000000000000000,1.57894736842105265495,0.52631578947368418131,0.78947368421052599441,0.78947368421052654952,1.31578947368421084185,0.00000000000000000000,0.00000000000000000000,0.00000000000000000000,0.65573770491803284877,4.26229508196721429414,3.11475409836065297853,1.47540983606557407626,0.32786885245901642438,0.16393442622950821219,0.00000000000000000000,16.00000000000000000000,-0.00498945026011090795,-0.04218218766802839248,-0.13562031798508444869,-0.21702956242638971052,-0.23764856677510842742,-0.15691067419637463876,-0.01145196280061979745,0.01757386688873942282,0.10064457361140442815,0.21536920695527800307,0.30481731461510225278,0.36275927302600069480,0.35618077947418819162,0.33821456795085957925,0.31764393138777446968,0.34946304807301659112,0.40607512293060288311,0.50603030949808769368,0.59470645885140227538,0.69256488272351979241,0.75719124783537572476,0.82732612952875617118,0.86508578191863605422,0.91509086287402907622,0.94018360713820026131,0.21188677148601509082,0.86199999999999998845,0.20200000000000001288,0.66000000000000003109,0.10799999999999999878,0.06853390998062243444,0.27000000000000001776,-0.03028470085544066048,0.42599999999999998979,0.46971566068898024104,0.00086367137571896624,0.22400000000000000466,0.43599999999999999867,2.07124920329263728647,0.23439847989089745983,0.76560152010910242915,0.12536719543640720276,0.31335326906875132780,0.49439371823210653822,0.25999523834120907839,0.50560628176789346178,0.12199999999999999734,0.14150994604838723623,0.40200000000000002398,0.46631143474954095396,0.52400000000000002132,0.60782138079792813468,3.29583333333333339255,0.08999999999999999667,0.10438002104154459060,0.20000000000000001110,0.23125247508292826049,0.29000000000000003553,0.33563249612447282333,2.20265151515151513806,0.06199999999999999956,0.07190135944764758369,0.08400000000000000522,0.09745603035587166452,0.14599999999999999090,0.16935738980351922045,1.36160714285714279370,1.63858025001533680332,8.37315787161784363946,18.14194863725485262762,11.51398399242919623475,10.01173812163317933255,29.65593262968405241509,0.16395372462261328939,0.83604627537738673837,0.61171076202865271032,0.38828923797134728968,0.25237300921369903994,0.74762699078630101557,0.42813182666617211058,0.48613409604963564448,0.00716278645714485407,-0.00828959630662992608,-0.00667850904467762185,-0.00589047074879195387,0.00285693431780782714,0.17452316945864093656,0.94710917306800679327,0.96675990697134150942,0.95654468675299497704,0.49285463618590585888,-1.15749340426529157000,-0.93236333837495732890,-0.82222609693466142122,0.39892364765272869676,5.47793975680151135066,5.59176987146116299954,5.53365463338260177295,2.84841912343884917647,0.05000000000000000278,0.11399999999999999023,0.02999999999999999889,0.00800000000000000017,0.15399999999999999800,0.05803133610839482370,0.13231322808998702278,0.03477143444080492418,0.00928248125171066488,0.17868195859731744735,0.15199999999999999623,0.03799999999999999906,-0.00800000000000000017,0.00000000000000000000,0.15399999999999999800,0.17636714378250262225,0.04405391569251558559,-0.00928248125171066488,0.00000000000000000000,0.17868195859731744735,0.19817238339159840010,-0.00715964323669809888,0.59709603104432706910,0.00035595261216269953
X1009,X1009_2,139.53405248256999016121,77.30606822726039695226,34.00000000000000000000,0.00844224218863118270,0.00603508975202964384,70.42253521126761484084,106.50000000000000000000,0.93640210426589320925,1.00000000000000000000,0.89820352071570774832,28.00000000000000000000,0.87798806304773813203,19.00000000000000000000,0.91172976133399519227,13.00000000000000000000,0.81484779253864869641,9.00000000000000000000,1.94444444444444441977,0.83333333333333337034,0.55555555555555535818,0.55555555555555569125,1.11111111111111138250,2.41935483870967749098,1.12903225806451623647,0.80645161290322553427,0.64516129032258073828,2.58064516129032295311,0.48387096774193510962,0.32258064516129036914,0.32258064516129036914,0.48387096774193560922,0.80645161290322608938,18.00000000000000000000,0.00000000000000000000,0.83333333333333337034,0.83333333333333303727,1.38888888888888928363,1.94444444444444486386,1.29032258064516125451,0.64516129032258062725,3.54838709677419217314,3.22580645161290435752,1.29032258064516147655,0.00000000000000000000,0.00000000000000000000,0.00000000000000000000,0.00000000000000000000,0.00000000000000000000,11.00000000000000000000,1.11111111111111116045,0.27777777777777779011,0.55555555555555535818,1.11111111111111138250,1.94444444444444486386,0.48387096774193549820,0.16129032258064515681,0.16129032258064510130,0.32258064516129036914,1.61290322580645217876,5.32258064516128559518,0.64516129032258073828,1.29032258064516147655,0.00000000000000000000,0.00000000000000000000,6.00000000000000000000,1.38888888888888883955,1.11111111111111116045,0.55555555555555535818,0.27777777777777784562,1.66666666666666696273,0.00000000000000000000,0.00000000000000000000,0.00000000000000000000,0.00000000000000000000,0.96774193548387121844,0.96774193548387021924,4.19354838709677490982,1.77419354838709719679,0.96774193548387121844,1.12903225806451645852,3.00000000000000000000,1.38888888888888883955,0.55555555555555558023,0.83333333333333303727,1.38888888888888928363,0.83333333333333348136,0.00000000000000000000,0.00000000000000000000,0.00000000000000000000,0.80645161290322608938,2.41935483870967793507,4.51612903225806050500,1.61290322580645217876,0.32258064516129036914,0.16129032258064518457,0.16129032258064518457,16.00000000000000000000,-0.00350549257915188772,-0.03754648450599988585,-0.12388291647966340192,-0.20811143948555957395,-0.22834404422033793836,-0.14895742468125147684,-0.00733756897395781288,0.03647979215683873344,0.14330282760938248265,0.28033338762271858835,0.38499997483860537439,0.44274697552933428568,0.43042578866089575840,0.40018295362839345630,0.36933915688284690848,0.39037133309107246992,0.44042060276970884658,0.52930670747283037336,0.61251003369401801901,0.70489832066741942018,0.76734735233797979337,0.82920300569717186878,0.86306079044702477265,0.90958759614728257326,0.93811137121201149114,0.22291129383882976600,0.86000000000000009770,0.20000000000000001110,0.66000000000000003109,0.11200000000000000233,0.06605766377206404028,0.27400000000000002132,-0.03505704447584487293,0.42599999999999998979,0.44479590567817373081,0.00425893061331236722,0.22600000000000000644,0.43399999999999994138,2.19584970579893656861,0.23335440680624167098,0.76664559319375835678,0.13067846781149533575,0.31965557123814009044,0.49664167254763585957,0.26328726574139416083,0.50335832745236408492,0.11999999999999999556,0.14001264408374500259,0.41200000000000003286,0.47974682427664078199,0.53200000000000002842,0.61975946836038575682,3.43333333333333357018,0.08799999999999999489,0.10267593899474633523,0.14600000000000001865,0.16947198698345489198,0.23399999999999998579,0.27214792597820119946,1.65909090909090917165,0.05600000000000000117,0.06533923390574766787,0.07599999999999999811,0.08843791656865052087,0.13200000000000000622,0.15377715047439818874,1.35714285714285720630,1.76348058436783294844,7.54810062136088077978,16.85687097481857321668,10.58487433616738293551,9.31158120572871439435,27.44174531098595792855,0.18898555331542901681,0.81101444668457089993,0.61416705072935906529,0.38583294927064087920,0.25336289586703275578,0.74663710413296724422,0.56127612438070484391,0.44070413910036010385,0.00688927887776976527,-0.00824425681014662182,-0.00738718034752505748,-0.00673957025706659052,0.00349942788978577224,0.21649437960196435404,0.95711667543920397883,0.97329182148614767911,0.96439122159780432675,0.45450455489189262037,-1.19680627725031141217,-1.07250832385311878348,-0.97858319334549870305,0.50839684092771730839,4.43549819778541909443,4.51014519712949724095,4.46881800988775346184,2.10608049407234698691,0.05399999999999999939,0.11399999999999999023,0.02400000000000000050,0.00800000000000000017,0.15199999999999999623,0.06320248176899553871,0.13281521994824746491,0.02800252881674900052,0.00933417627224966684,0.17698610130949582464,0.14599999999999999090,0.03200000000000000067,-0.00800000000000000017,0.00000000000000000000,0.15199999999999999623,0.17015192503724613227,0.03733670508899866736,-0.00933417627224966684,0.00000000000000000000,0.17698610130949582464,0.34588839902058865494,-0.00754845709121706315,0.85428523994830596333,0.00008286053047538773
X1009,X1009_4,132.56212237382919738593,76.58817250064787174324,32.00000000000000000000,0.01200589424653748620,0.01066548910107411458,65.78947368421053454313,114.00000000000000000000,0.93228013754842764538,2.00000000000000000000,0.87957079220995804114,27.00000000000000000000,0.86335933048274893231,19.00000000000000000000,0.89638475724619204321,14.00000000000000000000,0.77860243955473218413,10.00000000000000000000,1.94444444444444441977,0.83333333333333337034,0.55555555555555535818,0.55555555555555569125,1.11111111111111138250,3.22580645161290302525,0.96774193548387099639,0.80645161290322553427,2.41935483870967793507,0.64516129032258073828,0.32258064516129003607,0.32258064516129036914,0.32258064516129036914,0.32258064516129036914,0.64516129032258073828,18.00000000000000000000,0.00000000000000000000,0.83333333333333337034,0.83333333333333303727,1.11111111111111138250,2.22222222222222276500,1.29032258064516125451,0.48387096774193549820,2.74193548387096663888,4.35483870967741992786,1.12903225806451645852,0.00000000000000000000,0.00000000000000000000,0.00000000000000000000,0.00000000000000000000,0.00000000000000000000,11.00000000000000000000,1.11111111111111116045,0.27777777777777779011,0.55555555555555535818,1.11111111111111138250,1.94444444444444486386,0.32258064516129031363,0.16129032258064515681,0.32258064516129020260,0.16129032258064518457,1.61290322580645217876,5.48387096774193061322,0.64516129032258073828,1.29032258064516147655,0.00000000000000000000,0.00000000000000000000,6.00000000000000000000,1.38888888888888883955,0.55555555555555558023,0.83333333333333303727,0.55555555555555569125,1.66666666666666696273,0.00000000000000000000,0.00000000000000000000,0.00000000000000000000,0.00000000000000000000,0.64516129032258073828,0.80645161290322509018,4.67741935483871085211,2.09677419354838745491,0.80645161290322608938,0.96774193548387121844,21.00000000000000000000,1.38888888888888883955,0.55555555555555558023,0.83333333333333303727,1.11111111111111138250,1.11111111111111138250,0.00000000000000000000,0.00000000000000000000,0.00000000000000000000,0.80645161290322608938,3.38709677419354937555,3.70967741935483541482,1.61290322580645217876,0.16129032258064518457,0.16129032258064518457,0.16129032258064518457,16.00000000000000000000,-0.00263617962041489112,-0.02998642398889589736,-0.12147761161203965430,-0.20898902040596112339,-0.24327833379147106863,-0.17119571795350194132,-0.00905712492791057797,0.04766491878573548419,0.17367330998606139714,0.32849025834359896203,0.44326899733153890537,0.50629734365633916049,0.49433528704118812058,0.47380680034532596245,0.46120470799788776395,0.50596240268149794694,0.57078105598787876040,0.66804920128510270061,0.74494393625467059117,0.82343422484993944455,0.86454223278196018487,0.90851067891443992863,0.91838039310083019462,0.94046600568559046707,0.94129057127365012292,0.12739102146944394911,0.92399999999999993250,0.20400000000000001465,0.71999999999999997335,0.11399999999999999023,0.06853414183271973326,0.28200000000000002842,-0.03580483713104690158,0.44200000000000000400,0.37024453842283067129,0.00205486266878729396,0.23799999999999998934,0.48199999999999998401,2.60656821581414721578,0.22114349237718802788,0.77885650762281199988,0.12350296442687747067,0.30575741106719367401,0.47910093167701867101,0.25795743929983061538,0.52089906832298138450,0.11399999999999999023,0.12367687747035573109,0.38400000000000000799,0.41640767927724448016,0.49799999999999999822,0.54008455674760025289,3.37261904761904762751,0.08200000000000000344,0.08896174477696217053,0.13800000000000001155,0.14953931394692263068,0.22000000000000000111,0.23850105872388482897,1.68636363636363650897,0.05799999999999999600,0.06292539525691699664,0.07799999999999999989,0.08461391869000564614,0.13600000000000000977,0.14753931394692265666,1.35267857142857161890,1.53806968781140973590,7.78381151583302521857,17.45797509327736207752,9.04326571731246531272,9.32188120364443406629,26.50124081058982739023,0.16528458675889845519,0.83471541324110154481,0.65948757349543929429,0.34051242650456065020,0.26056429419340321196,0.73943570580659678804,0.77262981945028652575,0.40588046921700521308,0.00707012207370064094,-0.00860920938339668207,-0.00764251284439942946,-0.00693575160618384312,0.00318702459992661891,0.17718861108556566153,0.94948279877032293328,0.96280018991707660980,0.95383676640697079296,0.39282617735574065776,-1.21781921475774423946,-1.08135004098317777377,-0.98146039561820319630,0.45085715964767725250,5.35928195693724251925,5.43623550391061449716,5.38600443396868300283,2.21757264986702740117,0.05799999999999999600,0.11599999999999999201,0.02199999999999999872,0.00800000000000000017,0.16200000000000000511,0.06275148221343873622,0.12567687747035571899,0.02403634952004517211,0.00867878317334839014,0.17557566346696784620,0.14599999999999999090,0.02999999999999999889,-0.00800000000000000017,0.00000000000000000000,0.16200000000000000511,0.15839201016374929165,0.03271513269339355878,-0.00867878317334839014,0.00000000000000000000,0.17557566346696784620,0.39413406219595964464,-0.00777024328023034026,0.84499122184363684163,0.00015344825052051244
X1009,X1009_5,135.53315527969735398983,84.88311565532616498331,36.00000000000000000000,0.00824080085972913462,0.00550041649807035075,73.89162561576354448789,101.50000000000000000000,0.93575707340554237224,1.00000000000000000000,0.90050377968810213503,28.00000000000000000000,0.88443604294503597174,19.00000000000000000000,0.89479959064541936264,14.00000000000000000000,0.77763178405059696363,10.00000000000000000000,2.00000000000000000000,0.50000000000000000000,0.74999999999999977796,0.50000000000000011102,1.25000000000000044409,2.50000000000000000000,1.00000000000000000000,0.66666666666666640761,2.16666666666666696273,1.66666666666666718477,0.33333333333333303727,0.33333333333333337034,0.33333333333333337034,0.33333333333333337034,0.66666666666666674068,20.00000000000000000000,0.00000000000000000000,0.50000000000000000000,1.49999999999999955591,1.00000000000000022204,2.00000000000000044409,1.50000000000000000000,0.50000000000000000000,2.49999999999999911182,3.83333333333333436954,1.66666666666666718477,0.00000000000000000000,0.00000000000000000000,0.00000000000000000000,0.00000000000000000000,0.00000000000000000000,12.00000000000000000000,1.25000000000000000000,0.25000000000000000000,0.49999999999999983347,1.00000000000000022204,2.00000000000000044409,0.33333333333333331483,0.16666666666666665741,0.33333333333333320381,0.16666666666666668517,2.16666666666666696273,3.66666666666666341001,1.50000000000000022204,1.00000000000000022204,0.66666666666666674068,0.00000000000000000000,7.00000000000000000000,1.25000000000000000000,0.75000000000000000000,0.74999999999999977796,0.50000000000000011102,1.75000000000000044409,0.00000000000000000000,0.00000000000000000000,0.00000000000000000000,0.00000000000000000000,1.16666666666666696273,0.49999999999999961142,3.33333333333333436954,2.66666666666666696273,0.83333333333333359239,1.50000000000000022204,3.00000000000000000000,1.25000000000000000000,0.75000000000000000000,0.74999999999999977796,1.00000000000000022204,1.25000000000000044409,0.00000000000000000000,0.00000000000000000000,0.00000000000000000000,1.00000000000000022204,3.33333333333333436954,3.16666666666666385410,2.16666666666666696273,0.16666666666666668517,0.16666666666666668517,0.00000000000000000000,18.00000000000000000000,0.00231384949456657496,-0.03211980555285128686,-0.10902685533008744934,-0.19705609422323794311,-0.21284349215772357944,-0.13266465767564258882,-0.00567794655048881047,0.03523185117259951260,0.14377249488712134928,0.28277428005304983127,0.40614639309420519364,0.48350623703942863241,0.49339202862692915774,0.46072952694587598899,0.41812651877621931362,0.40767606297383379710,0.43607830968433985985,0.50522404782893526320,0.59157158080545824141,0.68464789665461711632,0.76161933586213170777,0.82237905498743146815,0.85865039102762197309,0.88522541427123291324,0.90125267452183588368,0.20066591504330844042,0.84799999999999997602,0.19733333333333336057,0.65066666666666661545,0.10933333333333333792,0.06916256849250061733,0.27200000000000001954,-0.03779333224906115257,0.42399999999999998801,0.36013124834892629167,0.00710347779367589017,0.22666666666666668295,0.42399999999999998801,2.56600869374831308534,0.23380469959195160357,0.76619530040804839643,0.12965526945265232195,0.32235120303925707264,0.50181089067116924074,0.26800619107921769269,0.49818910932883070375,0.11200000000000000233,0.13255382017729000488,0.37333333333333335036,0.44133108203179965967,0.48533333333333333881,0.57388490220908960904,3.33333333333333348136,0.08000000000000000167,0.09468130012663571182,0.12533333333333332438,0.14781905163922892665,0.20533333333333333992,0.24250035176586462460,1.56666666666666665186,0.05600000000000000117,0.06627691008864500244,0.07199999999999999456,0.08521317011397212815,0.12800000000000000266,0.15149008020261711671,1.28571428571428580945,1.38949720391433406697,7.34116360091025921264,15.72441329775603158225,8.85483108528472406817,8.73066080482459483392,24.57924438304075920314,0.15912600580516286786,0.84087399419483721541,0.64021797735763963377,0.35978202264236031072,0.26250556766340343851,0.73749443233659661701,0.68204853159443601385,0.41891688581669012104,0.00733634926499179829,-0.00910491432090121400,-0.00789086052047064702,-0.00709516612592142604,0.00400945496396916835,0.16685318676719265718,0.90566180213871627647,0.91840803587592168000,0.90745539540753938912,0.35601119524448893161,-1.24108445809997669507,-1.07561288320375192384,-0.96714785077148823778,0.54654180288198528359,5.49839893570098059428,5.57450984679535377353,5.50757843224417698025,2.15090467271192009591,0.05600000000000000117,0.10933333333333333792,0.02400000000000000397,0.00800000000000000017,0.15199999999999999623,0.06627691008864500244,0.12965526945265232195,0.02840439003799071285,0.00946813001266356979,0.17945968763191219586,0.14133333333333333859,0.03200000000000000067,-0.00800000000000000017,0.00000000000000000000,0.15199999999999999623,0.16752778950330660113,0.03787252005065427918,-0.00946813001266356979,0.00000000000000000000,0.17945968763191219586,0.25513447299327846052,-0.00812162536506551812,0.80167627587526368860,0.00021817281151015333
X1009,X1009_6,146.05925099269580869077,80.57482897707856750458,35.00000000000000000000,0.01137750574038953397,0.00868534731103343637,65.21739130434782794055,115.00000000000000000000,0.92663819555920245996,3.00000000000000000000,0.86855122420100716596,27.00000000000000000000,0.85812246302532391162,19.00000000000000000000,0.88081605304182242211,14.00000000000000000000,0.75116447255929341686,10.00000000000000000000,1.94444444444444441977,0.55555555555555558023,0.55555555555555535818,0.83333333333333348136,1.11111111111111138250,2.74193548387096752705,1.12903225806451623647,0.80645161290322553427,0.96774193548387121844,2.09677419354838745491,0.48387096774193510962,0.32258064516129036914,0.32258064516129036914,0.48387096774193560922,0.64516129032258073828,18.00000000000000000000,0.00000000000000000000,0.83333333333333337034,1.11111111111111071637,0.83333333333333348136,2.22222222222222276500,1.29032258064516125451,0.80645161290322575631,3.87096774193548265330,4.03225806451612989179,0.00000000000000000000,0.00000000000000000000,0.00000000000000000000,0.00000000000000000000,0.00000000000000000000,0.00000000000000000000,11.00000000000000000000,1.11111111111111116045,0.55555555555555558023,0.27777777777777767909,1.11111111111111138250,1.94444444444444486386,0.16129032258064515681,0.32258064516129031363,0.16129032258064510130,0.16129032258064518457,1.77419354838709719679,5.48387096774193061322,0.80645161290322608938,1.12903225806451645852,0.00000000000000000000,0.00000000000000000000,6.00000000000000000000,1.11111111111111116045,1.11111111111111116045,0.55555555555555535818,0.55555555555555569125,1.66666666666666696273,0.00000000000000000000,0.00000000000000000000,0.00000000000000000000,0.00000000000000000000,0.16129032258064518457,1.29032258064516014429,4.67741935483871085211,1.93548387096774243687,0.96774193548387121844,0.96774193548387121844,22.00000000000000000000,1.38888888888888883955,0.83333333333333337034,0.55555555555555535818,1.11111111111111138250,1.11111111111111138250,0.00000000000000000000,0.00000000000000000000,0.00000000000000000000,0.48387096774193560922,2.25806451612903291704,5.96774193548386566732,0.96774193548387121844,0.16129032258064518457,0.16129032258064518457,0.00000000000000000000,16.00000000000000000000,-0.00169477643960429638,-0.03301612969898593680,-0.12481698224069137648,-0.21745275509211553500,-0.24683135688287796694,-0.17374306506570463826,-0.00900552930925855102,0.04179935534672506170,0.15197652245438122987,0.28675425232686113652,0.38750053766212883000,0.44725480317395843732,0.44045413610283673522,0.42617591209508409733,0.41389593459650114715,0.45123066574388065453,0.50772294824625130438,0.59829402815218613032,0.67260457114265059797,0.75407561573846471070,0.80152110815109489650,0.85143927544781272676,0.87097014038635545141,0.90322616117318843543,0.91174614935452835685,0.16269109656184355117,0.89599999999999990763,0.20000000000000001110,0.69600000000000006306,0.11000000000000000056,0.05795882006588633228,0.27000000000000001776,-0.02742764159076258035,0.43399999999999999689,0.34713041367119973346,0.00137902388533431286,0.23399999999999998579,0.46199999999999996625,2.32170392043050899389,0.22401977984070983729,0.77598022015929013495,0.12327716366731925057,0.30249298753988712596,0.48594884015841260938,0.26192906031770268882,0.51405115984158733511,0.11599999999999999201,0.13005217422029519136,0.40200000000000002398,0.45072001556998025906,0.51800000000000001599,0.58077218979027545043,3.46904761904761915758,0.08399999999999999134,0.09420900944578161629,0.14799999999999999267,0.16601500393298188052,0.23200000000000001177,0.26022401337876344130,1.76590909090909087276,0.05799999999999999600,0.06489945139887701164,0.07799999999999999989,0.08743399889280567550,0.13600000000000000977,0.15233345029168268714,1.35267857142857161890,1.21681647495787870206,6.46868362986861455965,14.67499489974714421692,8.60780278271241883203,7.68550010482649348376,23.28279768245956660166,0.15885091962460695658,0.84114908037539293240,0.63038757073409512621,0.36961242926590481828,0.24812654857625063287,0.75187345142374928386,0.65385507327779257558,0.43017887181106195804,0.00609995170595604638,-0.00732362144580075980,-0.00620994515749001552,-0.00553732841737761272,0.00240994456506868349,0.15047567209525636311,0.78925448619186255872,0.80412022362088031446,0.79589134637212133327,0.36525016763910173045,-1.20287518149322125716,-1.01775967505232989296,-0.90675483045670979276,0.39657936254179493307,5.26180197703589769276,5.36166803966748339860,5.30667059583958522495,2.43344222747102811866,0.05399999999999999939,0.11200000000000000233,0.02600000000000000228,0.00800000000000000017,0.16000000000000000333,0.06055162531192049419,0.12545107671079752665,0.02905628662436344004,0.00896079119362839377,0.17885475510902779095,0.14599999999999999090,0.03400000000000000244,-0.00800000000000000017,0.00000000000000000000,0.16000000000000000333,0.16346815452878935004,0.03801707781799183727,-0.00896079119362839377,0.00000000000000000000,0.17885475510902779095,0.32505996147402360652,-0.00647379281446765036,0.72163932401581853959,0.00021160323650139487
X1009,X1009_7,148.14104775462558905019,83.30541433032345821630,33.00000000000000000000,0.00995646439439597762,0.00830123386318943300,73.17073170731707421055,102.50000000000000000000,0.94471875743221755961,79.00000000000000000000,0.90154481755507442919,28.00000000000000000000,0.88679211314267902821,19.00000000000000000000,0.93124245668293337275,13.00000000000000000000,0.82542747857263576439,9.00000000000000000000,1.94444444444444441977,0.83333333333333337034,0.55555555555555535818,0.55555555555555569125,1.11111111111111138250,2.25806451612903247295,0.96774193548387099639,0.64516129032258040521,0.64516129032258073828,3.38709677419354937555,0.32258064516129003607,0.32258064516129036914,0.32258064516129036914,0.32258064516129036914,0.80645161290322608938,18.00000000000000000000,0.00000000000000000000,0.55555555555555558023,1.11111111111111071637,1.11111111111111138250,2.22222222222222276500,1.29032258064516125451,0.64516129032258062725,3.06451612903225711904,3.22580645161290435752,1.61290322580645217876,0.16129032258064501804,0.00000000000000000000,0.00000000000000000000,0.00000000000000000000,0.00000000000000000000,11.00000000000000000000,1.11111111111111116045,0.27777777777777779011,0.55555555555555535818,0.83333333333333348136,2.22222222222222276500,0.32258064516129031363,0.32258064516129031363,0.16129032258064510130,0.32258064516129036914,1.93548387096774243687,4.67741935483870552304,0.80645161290322608938,0.80645161290322608938,0.64516129032258073828,0.00000000000000000000,6.00000000000000000000,1.38888888888888883955,0.55555555555555558023,1.11111111111111071637,0.27777777777777784562,1.66666666666666696273,0.00000000000000000000,0.00000000000000000000,0.00000000000000000000,0.00000000000000000000,1.12903225806451645852,0.48387096774193510962,3.70967741935483941162,2.41935483870967793507,0.96774193548387121844,1.29032258064516147655,22.00000000000000000000,1.38888888888888883955,0.83333333333333337034,0.55555555555555535818,1.11111111111111138250,1.11111111111111138250,0.00000000000000000000,0.00000000000000000000,0.00000000000000000000,0.96774193548387121844,3.87096774193548487375,2.90322580645161032464,1.77419354838709719679,0.16129032258064518457,0.16129032258064518457,0.16129032258064518457,16.00000000000000000000,-0.00448470417656211297,-0.03535028554394795131,-0.12291486124597143792,-0.20256449141810337067,-0.23038499343242482831,-0.15652190207486832429,-0.00986266658445019220,0.03538368457265825273,0.14882608201963964945,0.29640720129679570816,0.40804126787226185913,0.46825320023251038037,0.44267546232445764698,0.39120777338517986887,0.33576532387919544309,0.34159137345384954498,0.38456940938470124403,0.48323038201405876801,0.57985176984161490576,0.68822443262560351052,0.75993040593034821839,0.83066710323737191768,0.86457855748313350297,0.91253371615927070248,0.93760156828926055628,0.24147681429870734848,0.83200000000000007283,0.19400000000000000577,0.63800000000000001155,0.10599999999999999700,0.06736030646396766464,0.26600000000000001421,-0.03704513819099861105,0.41399999999999997913,0.43823217550349613525,0.00853201838976085092,0.22000000000000000111,0.41800000000000003819,2.20973561976160670639,0.23332237069860831125,0.76667762930139171651,0.12742461746174615911,0.31996598698331374377,0.49820371460222945270,0.26488134390362116921,0.50179628539777054730,0.11999999999999999556,0.14420350688915045678,0.40800000000000002931,0.49030153015301530806,0.52800000000000002487,0.63450503704216576484,3.40089285714285738393,0.08400000000000000522,0.10094725818735719725,0.13400000000000000799,0.16098239631655475446,0.21799999999999999933,0.26192965450391192395,1.59545454545454523654,0.05799999999999999600,0.06966220660527591702,0.07199999999999999456,0.08664361628470537702,0.13000000000000000444,0.15630582288998132179,1.24553571428571419055,1.64313796025905856091,7.43646981277593344117,15.79111154230419344913,10.65478378630498390578,9.07960777303499178004,26.44589532860917557855,0.18076766897317528282,0.81923233102682468942,0.59649362481854839579,0.40350637518145160421,0.25548510160728460372,0.74451489839271545179,0.53572458840590886364,0.43698246151995906450,0.00713044617672068531,-0.00888486367187665826,-0.00783035186379094084,-0.00707780159527790498,0.00407566148339774670,0.21427632446876720973,0.95861182677362144489,0.96296245328347795933,0.95177951623493117772,0.42451407923621209406,-1.24710859549237929045,-1.09748902070995102420,-0.99140206240041339747,0.57195866744754630950,4.52589011454935885581,4.54616259306992009925,4.49395746816384988875,1.99312548424593605212,0.05000000000000000278,0.11599999999999999201,0.02000000000000000042,0.00800000000000000017,0.14999999999999999445,0.06003513812919752946,0.13972945371460224195,0.02393071037873018350,0.00962706847607837715,0.18064157377276185423,0.14399999999999998912,0.02799999999999999711,-0.00800000000000000017,0.00000000000000000000,0.14999999999999999445,0.17328723256941075404,0.03355777885480855371,-0.00962706847607837715,0.00000000000000000000,0.18064157377276185423,0.26982382017043904376,-0.00792408711993946614,0.84178248761798513122,0.00031823646091707448
X1009,X1009_8,148.97353704062848578360,81.89119498062596846921,35.00000000000000000000,0.00713425202794274686,0.00559481344547195069,67.56756756756756487903,111.00000000000000000000,0.92888391920181834216,1.00000000000000000000,0.87658403253594008309,27.00000000000000000000,0.86615449360180429839,19.00000000000000000000,0.88988570089945295827,14.00000000000000000000,0.78188099024427615280,10.00000000000000000000,1.94444444444444441977,0.83333333333333337034,0.55555555555555535818,0.55555555555555569125,1.11111111111111138250,3.22580645161290302525,0.96774193548387099639,0.64516129032258040521,2.09677419354838745491,0.96774193548387121844,0.48387096774193510962,0.32258064516129036914,0.32258064516129036914,0.32258064516129036914,0.64516129032258073828,18.00000000000000000000,0.00000000000000000000,0.83333333333333337034,1.11111111111111071637,1.11111111111111138250,1.94444444444444486386,1.29032258064516125451,0.64516129032258062725,3.70967741935483719118,3.38709677419354937555,0.96774193548387121844,0.00000000000000000000,0.00000000000000000000,0.00000000000000000000,0.00000000000000000000,0.00000000000000000000,11.00000000000000000000,1.11111111111111116045,0.27777777777777779011,0.27777777777777767909,1.38888888888888928363,1.94444444444444486386,0.32258064516129031363,0.16129032258064515681,0.16129032258064510130,0.16129032258064518457,1.61290322580645217876,5.64516129032257563125,0.64516129032258073828,1.29032258064516147655,0.00000000000000000000,0.00000000000000000000,6.00000000000000000000,1.38888888888888883955,0.55555555555555558023,0.55555555555555535818,0.83333333333333348136,1.66666666666666696273,0.00000000000000000000,0.00000000000000000000,0.00000000000000000000,0.00000000000000000000,0.64516129032258073828,0.80645161290322509018,4.67741935483871085211,2.41935483870967793507,0.64516129032258073828,0.80645161290322608938,22.00000000000000000000,1.38888888888888883955,0.55555555555555558023,0.83333333333333303727,1.38888888888888928363,0.83333333333333348136,0.00000000000000000000,0.00000000000000000000,0.00000000000000000000,0.64516129032258073828,5.64516129032258184850,2.74193548387096530661,0.64516129032258073828,0.00000000000000000000,0.16129032258064518457,0.16129032258064518457,16.00000000000000000000,-0.00289658837017781534,-0.02670712702409116721,-0.11666932229001401866,-0.20155612636483918876,-0.24379239977373159953,-0.17699406892223501497,-0.01170323617351110186,0.04276585723514118170,0.16660151397140915419,0.31592048439634023982,0.42573068634435834445,0.48486430376538758313,0.46750679694065122582,0.44011867076706279178,0.42292785404353577805,0.46851909334576669064,0.54044713179398273795,0.64494909843457193244,0.72565241326320795157,0.80698955289446239192,0.85187696203264395844,0.89819075428762917834,0.90854226730783005372,0.93157083550188135579,0.93398118287076481447,0.15334132279849405078,0.91999999999999992895,0.20000000000000003886,0.72000000000000008438,0.11200000000000000233,0.06705533317087813971,0.27200000000000001954,-0.03377790701995553313,0.43199999999999999512,0.37347066101936160498,0.00223481231568278815,0.23200000000000001177,0.48799999999999998934,2.48072300123684774675,0.21753562446139884656,0.78246437553860115344,0.12181994969838337572,0.29584844926750247796,0.46987694883662162182,0.25234132437522266423,0.53012305116337843369,0.11200000000000000233,0.12181994969838337572,0.38400000000000006350,0.41766839896588581205,0.49599999999999999645,0.53948834866426909063,3.42857142857142838110,0.08533333333333333048,0.09271267176001248000,0.13600000000000000977,0.14792422463375123898,0.22133333333333335413,0.24063689639376373286,1.59696969696969692798,0.05600000000000000117,0.06090997484919168786,0.07466666666666665897,0.08131582780910660835,0.13066666666666668095,0.14222580265829828927,1.33333333333333325932,1.44382667103001605113,7.23025905793704648516,16.23355485829057798242,8.65522657662224936814,8.67408572896706253630,24.88878143491282557420,0.16653288712163452634,0.83346711287836539039,0.65223922256372102169,0.34776077743627897831,0.25841665455992379741,0.74158334544007631361,0.75156453748565843487,0.40965314362769672529,0.00695648101115758487,-0.00875414128348110145,-0.00754360814162528381,-0.00675153765790925675,0.00298659661195912118,0.19114500282169324952,0.90971229800437114488,0.92343470935955929146,0.91350005671530265516,0.39455005628075351387,-1.26035929759827847185,-1.08599947019496401168,-0.97184700832307235885,0.43067960507972397055,4.80191425429199103547,4.87392191932574103674,4.82134394484426120897,2.07920234158015615478,0.05866666666666666557,0.10933333333333333792,0.02400000000000000397,0.00800000000000000017,0.15733333333333332504,0.06391297785219468564,0.11881694669538035714,0.02610427493536786325,0.00870142497845595442,0.17102549656611609752,0.14133333333333333859,0.03200000000000000067,-0.00800000000000000017,0.00000000000000000000,0.15733333333333332504,0.15362264660920418868,0.03480569991382381767,-0.00870142497845595442,0.00000000000000000000,0.17102549656611609752,0.36680757584003381711,-0.00777207332893076197,0.79748718091975778766,0.00015991925698822187
X1009,X1009_9,135.69832067984467016686,75.58801515269993842594,34.00000000000000000000,0.01104453406163853971,0.00727337436369488669,69.44444444444444286546,108.00000000000000000000,0.93802676439922527685,1.00000000000000000000,0.88948117323500408560,27.00000000000000000000,0.87291744516902380902,19.00000000000000000000,0.89894844396207140846,13.00000000000000000000,0.80291878701430197118,9.00000000000000000000,2.10526315789473672524,0.52631578947368418131,0.52631578947368407029,0.52631578947368429233,1.31578947368421084185,2.95081967213114770843,0.98360655737704916213,0.81967213114754078340,2.95081967213114815252,0.32786885245901642438,0.32786885245901609132,0.32786885245901642438,0.32786885245901642438,0.32786885245901642438,0.65573770491803284877,19.00000000000000000000,0.00000000000000000000,0.78947368421052632748,1.05263157894736814058,1.05263157894736858466,2.10526315789473716933,1.31147540983606547549,0.65573770491803273774,1.96721311475409765812,4.59016393442623016341,1.47540983606557407626,0.00000000000000000000,0.00000000000000000000,0.00000000000000000000,0.00000000000000000000,0.00000000000000000000,11.00000000000000000000,1.05263157894736836262,0.52631578947368418131,0.26315789473684203514,1.31578947368421084185,1.84210526315789513419,0.32786885245901636887,0.16393442622950818444,0.32786885245901625785,0.16393442622950821219,1.80327868852459061166,5.08196721311474952643,0.65573770491803284877,0.81967213114754122749,0.65573770491803284877,0.00000000000000000000,7.00000000000000000000,1.57894736842105265495,0.52631578947368418131,0.52631578947368407029,0.52631578947368429233,1.84210526315789513419,0.00000000000000000000,0.00000000000000000000,0.00000000000000000000,0.00000000000000000000,0.98360655737704938417,0.81967213114754033931,4.26229508196721429414,1.96721311475409876834,0.65573770491803284877,1.31147540983606569753,23.00000000000000000000,1.57894736842105265495,0.52631578947368418131,0.78947368421052599441,1.05263157894736858466,1.05263157894736858466,0.00000000000000000000,0.00000000000000000000,0.00000000000000000000,0.98360655737704938417,3.27868852459016490997,3.77049180327868516116,1.47540983606557407626,0.16393442622950821219,0.16393442622950821219,0.16393442622950821219,17.00000000000000000000,-0.00121965876654168059,-0.03328077081002068366,-0.10949285478417815354,-0.19866957255212741584,-0.21819326983954981380,-0.13846041743188192141,-0.00094506014454363786,0.06148282665538579161,0.19302911297708560956,0.35573934566297726878,0.48503280083741262541,0.56289446877298265903,0.56032209628383955469,0.52557182044733408155,0.48196338647114361775,0.48435169087462193183,0.51757081034877128189,0.59612645837787014980,0.67666579299721374419,0.76879742370299475329,0.83349480626742877831,0.89180198981819458481,0.91591385175643980077,0.94447201138973779777,0.95219738866878711470,0.16236747301059645254,0.85799999999999998490,0.20599999999999998868,0.65200000000000002398,0.11599999999999999201,0.06958768064117995533,0.27800000000000002487,-0.04038790462375255186,0.43599999999999999867,0.32808911541351587493,0.00526538339489820983,0.23000000000000000999,0.42200000000000004174,2.90611258988132847847,0.24017726999914260078,0.75982273000085742698,0.13528173414941396802,0.32405692888094500548,0.50826949458840908758,0.26809222458926651456,0.49173050541159091242,0.11799999999999999378,0.13757531213106538592,0.37199999999999999734,0.43380302765484535232,0.48999999999999999112,0.57137833978591068274,3.15595238095238084242,0.08599999999999999312,0.10026550926994638735,0.11799999999999999378,0.13750791457535005424,0.20400000000000001465,0.23777342384529645547,1.37499999999999977796,0.05600000000000000117,0.06529215500695823016,0.06600000000000000311,0.07695605432036882465,0.12199999999999999734,0.14224820932732706869,1.17857142857142838110,1.57888814730818882737,7.88135244643679389043,15.77258531334897284637,8.38429839196849790994,9.46024059374498271779,24.15688370531746897996,0.16687334744848902890,0.83312665255151097110,0.65280286746889659710,0.34719713253110334739,0.28142683117906397428,0.71857316882093602572,0.79820515715909001742,0.39245214218157953301,0.00723765299553476987,-0.00912713347844945622,-0.00802057669684064223,-0.00726371302005263120,0.00381913919620024966,0.17295115099945193582,0.94106924523053769871,0.94698003271740627262,0.93346634943290207609,0.33881400784209519950,-1.26117494410530284199,-1.10835369219624624293,-1.00377837374957756822,0.52775027406652652573,5.49048425005426921075,5.52583948369709343496,5.44724333295119222953,1.97607371453937474826,0.05999999999999999778,0.11399999999999999023,0.02400000000000000050,0.00800000000000000017,0.15199999999999999623,0.06998957914245576561,0.13287788799556782271,0.02798235214583924546,0.00932745071527974791,0.17722156359031521200,0.14599999999999999090,0.03200000000000000067,-0.00800000000000000017,0.00000000000000000000,0.15199999999999999623,0.17018769085668683516,0.03730980286111899163,-0.00932745071527974791,0.00000000000000000000,0.17722156359031521200,0.32320684777399466547,-0.00822729328701862078,0.85095712184052130223,0.00059939752284733877
X1009,X1009_10,144.79549554700582802980,83.23062535050343058174,33.00000000000000000000,0.00822647585383319384,0.00837741395286327115,70.09345794392523032457,107.00000000000000000000,0.92818456507269786471,1.00000000000000000000,0.88667106607521506412,28.00000000000000000000,0.88171750988674002514,19.00000000000000000000,0.88617415454167502986,14.00000000000000000000,0.77801908094698768448,10.00000000000000000000,1.94444444444444441977,0.55555555555555558023,0.55555555555555535818,0.83333333333333348136,1.11111111111111138250,2.90322580645161298918,0.96774193548387099639,0.64516129032258040521,1.93548387096774243687,1.61290322580645217876,0.32258064516129003607,0.32258064516129036914,0.32258064516129036914,0.32258064516129036914,0.64516129032258073828,18.00000000000000000000,0.00000000000000000000,0.55555555555555558023,1.11111111111111071637,1.11111111111111138250,2.22222222222222276500,1.29032258064516125451,0.64516129032258062725,2.41935483870967660280,4.19354838709677490982,1.45161290322580671663,0.00000000000000000000,0.00000000000000000000,0.00000000000000000000,0.00000000000000000000,0.00000000000000000000,11.00000000000000000000,1.11111111111111116045,0.27777777777777779011,0.55555555555555535818,1.11111111111111138250,1.94444444444444486386,0.32258064516129031363,0.16129032258064515681,0.16129032258064510130,0.32258064516129036914,1.61290322580645217876,4.99999999999999555911,0.96774193548387121844,1.12903225806451645852,0.32258064516129036914,0.00000000000000000000,6.00000000000000000000,1.38888888888888883955,0.83333333333333337034,0.55555555555555535818,0.55555555555555569125,1.66666666666666696273,0.00000000000000000000,0.00000000000000000000,0.00000000000000000000,0.00000000000000000000,0.96774193548387121844,0.64516129032258007214,4.03225806451612989179,2.25806451612903291704,0.96774193548387121844,1.12903225806451645852,21.00000000000000000000,1.38888888888888883955,0.55555555555555558023,0.83333333333333303727,1.11111111111111138250,1.11111111111111138250,0.00000000000000000000,0.00000000000000000000,0.00000000000000000000,0.96774193548387121844,4.51612903225806583407,2.74193548387096530661,1.45161290322580671663,0.16129032258064518457,0.00000000000000000000,0.16129032258064518457,16.00000000000000000000,-0.00310431635409566141,-0.03195714084260575794,-0.12197427407366825958,-0.20932352339829848886,-0.24451380785497350834,-0.17767417663192883182,-0.01429917167379888936,0.03335583016740849976,0.15801371347363393771,0.31818833023742992827,0.44169861882210070814,0.50782712523864304011,0.48595097425102223854,0.44160575152144326827,0.40041797380413474139,0.42478378770596197933,0.48465156063351400029,0.58833258629327578326,0.67810293477616556679,0.77138890838907148151,0.82492764102678750593,0.87661853738469242003,0.89186449372093434818,0.91977279883646401171,0.92715763968757713975,0.18850231369591802233,0.86999999999999999556,0.19400000000000000577,0.67599999999999993427,0.11000000000000000056,0.06935459756683545751,0.26600000000000001421,-0.03738343204769101202,0.42199999999999998623,0.37419184260130916586,0.00696152815244489853,0.22800000000000000822,0.44800000000000000933,2.51060120865556246628,0.22341407134808122237,0.77658592865191877763,0.12681543879274917441,0.30670623355939868881,0.48636114956096732076,0.26294707821288609839,0.51363885043903256822,0.11000000000000000056,0.12641116733591120647,0.38800000000000001155,0.44660514742366219654,0.49799999999999999822,0.57301631475957337525,3.53525641025641057524,0.08199999999999998956,0.09434638030307981871,0.12800000000000000266,0.14718585751189938726,0.20999999999999999223,0.24153223781497923373,1.56136363636363650897,0.05199999999999999761,0.05972214939961738994,0.07199999999999999456,0.08297208710035804125,0.12399999999999999911,0.14269423649997542425,1.39285714285714279370,1.52349183783710717677,7.04738769898543804260,15.90581152201369619092,9.50011512388267931328,8.57087953682254521937,25.40592664589637550421,0.17773165621739753228,0.82226834378260238445,0.62642216591728305808,0.37357783408271705294,0.25234643694617037157,0.74765356305382968394,0.70831112291196474118,0.41088463789558621331,0.00734558011523285537,-0.00923660282892010964,-0.00812040857877258104,-0.00730540135010060432,0.00388993466437857760,0.18958010407200798220,0.92431671336975163022,0.93189147331355348669,0.92156381805091025505,0.37211400780016784529,-1.25725294318201363808,-1.10484880336584634364,-0.99377556175600445521,0.52920764707474243771,4.89194039437712113738,4.93124288730264215275,4.87686031139998732442,1.96314538163831620032,0.05600000000000000117,0.11000000000000000056,0.02000000000000000042,0.00800000000000000017,0.15199999999999999623,0.06453384552250070183,0.12681543879274917441,0.02284566624390269723,0.00921912078892867318,0.17516329498964477995,0.13800000000000001155,0.02800000000000000058,-0.00800000000000000017,0.00000000000000000000,0.15199999999999999623,0.15888022582558053442,0.03206478703283137388,-0.00921912078892867318,0.00000000000000000000,0.17516329498964477995,0.31216377486509488959,-0.00821399480820550823,0.84137142193983727179,0.00022071265071293370
X1009,X1009_11,146.50505191446276853640,78.95593738255769267198,36.00000000000000000000,0.00642563686679516188,0.00494899638073664598,64.65517241379311030869,116.00000000000000000000,0.92624256030180895927,3.00000000000000000000,0.86871929667708125411,27.00000000000000000000,0.86006396778726479369,19.00000000000000000000,0.87947974361339709137,14.00000000000000000000,0.79575976627573008493,10.00000000000000000000,2.05882352941176449690,0.58823529411764707842,0.58823529411764685637,0.58823529411764718944,1.17647058823529437888,3.17460317460317442695,0.95238095238095232808,0.79365079365079338469,0.79365079365079382878,2.22222222222222276500,0.31746031746031716514,0.31746031746031749821,0.31746031746031749821,0.31746031746031749821,0.79365079365079382878,17.00000000000000000000,0.00000000000000000000,0.88235294117647056211,0.88235294117647022905,1.17647058823529437888,2.05882352941176494099,1.26984126984126977078,0.47619047619047616404,3.80952380952380798007,3.49206349206349297987,0.95238095238095266115,0.00000000000000000000,0.00000000000000000000,0.00000000000000000000,0.00000000000000000000,0.00000000000000000000,10.00000000000000000000,1.17647058823529415683,0.29411764705882353921,0.29411764705882342819,1.47058823529411797360,1.76470588235294156831,0.31746031746031744269,0.15873015873015872135,0.31746031746031733167,0.15873015873015874910,1.58730158730158765756,5.55555555555555091729,0.95238095238095266115,0.95238095238095266115,0.00000000000000000000,0.00000000000000000000,6.00000000000000000000,1.47058823529411775155,0.58823529411764707842,0.88235294117647022905,0.29411764705882359472,1.76470588235294156831,0.00000000000000000000,0.00000000000000000000,0.00000000000000000000,0.00000000000000000000,0.63492063492063499641,0.95238095238095155093,4.76190476190476275065,1.90476190476190532230,0.95238095238095266115,0.79365079365079382878,20.00000000000000000000,1.47058823529411775155,0.58823529411764707842,0.58823529411764685637,1.17647058823529437888,1.17647058823529437888,0.00000000000000000000,0.00000000000000000000,0.00000000000000000000,0.63492063492063499641,2.69841269841269904006,5.07936507936507464223,0.95238095238095266115,0.31746031746031749821,0.15873015873015874910,0.15873015873015874910,15.00000000000000000000,-0.00448487826189633825,-0.03234106225175603644,-0.12582086862854574560,-0.22087612743933404680,-0.25619258726389415592,-0.19342406143717785771,-0.01638518379752630649,0.03176897216502290455,0.15005256376623357650,0.29178313453164977931,0.39302356520708564558,0.44401843118791589626,0.42550003712726963689,0.40774431432850027912,0.40511786733020055395,0.46268344013258755343,0.54087360480134460960,0.64579966200786231845,0.72314244436968277974,0.80129838673382969283,0.84301257051583189384,0.88855371525353321616,0.90417600535586317712,0.93783521507070122247,0.94629575304637858491,0.14672159720943389605,0.91199999999999992184,0.20000000000000003886,0.71200000000000007727,0.11200000000000000233,0.06981875107730300956,0.27200000000000001954,-0.03429123323043870020,0.43466666666666670116,0.40257836005727770656,0.00190435565573586030,0.23466666666666666230,0.47733333333333333171,2.42344901027402626070,0.21962104321348427383,0.78037895678651569842,0.12298778419955119778,0.29868461877033863905,0.47746787309421251377,0.25784682988072821219,0.52253212690578754174,0.11200000000000000233,0.12298778419955119778,0.38933333333333336457,0.42710926394931852945,0.50133333333333329751,0.55009704814886972724,3.47619047619047627506,0.08533333333333333048,0.09354683926084665646,0.14399999999999998912,0.15786559011768441785,0.22933333333333330573,0.25141242937853108819,1.68787878787878775633,0.05600000000000000117,0.06149389209977559889,0.08000000000000000167,0.08784841728539372063,0.13600000000000000977,0.14934230938516931952,1.42857142857142860315,1.59108098589668256473,7.71238019384540507417,18.09675774816111726295,9.94960670589840034950,9.30346117974208652868,28.04636445405951761245,0.17102496083544926897,0.82897503916455062001,0.64566284479613778036,0.35433715520386216413,0.24913103280056672628,0.75086896719943319045,0.66593428771128038157,0.43123362325212150070,0.00729631526543531028,-0.00880564806838638782,-0.00790684483701931118,-0.00717301565680021191,0.00312834234013117029,0.17561808003206147433,0.95693036650095464335,0.97221611324512835495,0.96395643026009425469,0.42589125617864204143,-1.20648507800464144246,-1.08303532960896120585,-0.98244034634718879762,0.42855165673556894212,5.46451575746069195816,5.55043975048382076665,5.50334604914991576408,2.42731457398720040786,0.05600000000000000117,0.11466666666666665286,0.02133333333333333262,0.00800000000000000017,0.16000000000000000333,0.06149389209977559889,0.12607420395263760349,0.02326810543253169175,0.00878484172853937102,0.17569683457078744127,0.14399999999999998912,0.02933333333333333279,-0.00800000000000000017,0.00000000000000000000,0.16000000000000000333,0.15812715111370867493,0.03205294716107106451,-0.00878484172853937102,0.00000000000000000000,0.17569683457078744127,0.43043894121593945234,-0.00800091388119096754,0.85899059795150833896,0.00002094337461268051
X1009,X1009_12,133.79002411958558127481,76.94206092877438152300,37.00000000000000000000,0.00556854916176164130,0.00423424783655693745,71.42857142857143060155,105.00000000000000000000,0.93990290473887583289,79.00000000000000000000,0.89471387314548955771,28.00000000000000000000,0.88111520260592701703,19.00000000000000000000,0.91313004223781246704,13.00000000000000000000,0.78647620006337337628,10.00000000000000000000,2.10526315789473672524,0.52631578947368418131,0.52631578947368407029,0.78947368421052654952,1.05263157894736858466,2.62295081967213095098,0.98360655737704916213,0.81967213114754078340,3.11475409836065608715,0.49180327868852469209,0.32786885245901609132,0.32786885245901642438,0.16393442622950821219,0.32786885245901642438,0.81967213114754122749,19.00000000000000000000,0.00000000000000000000,0.52631578947368418131,1.05263157894736814058,1.31578947368421084185,2.10526315789473716933,1.31147540983606547549,0.65573770491803273774,1.96721311475409765812,4.09836065573770547132,1.47540983606557407626,0.49180327868852419249,0.00000000000000000000,0.00000000000000000000,0.00000000000000000000,0.00000000000000000000,12.00000000000000000000,1.05263157894736836262,0.26315789473684209065,0.52631578947368407029,1.05263157894736858466,2.10526315789473716933,0.49180327868852458106,0.16393442622950818444,0.16393442622950812892,0.32786885245901642438,1.63934426229508245498,4.09836065573770103043,1.47540983606557407626,0.81967213114754122749,0.81967213114754122749,0.00000000000000000000,7.00000000000000000000,1.31578947368421061981,1.05263157894736836262,0.52631578947368407029,0.26315789473684214617,1.84210526315789513419,0.00000000000000000000,0.00000000000000000000,0.00000000000000000000,0.00000000000000000000,1.14754098360655754085,0.65573770491803218263,3.60655737704918122333,2.29508196721311508171,0.81967213114754122749,1.47540983606557407626,24.00000000000000000000,1.31578947368421061981,0.78947368421052632748,0.78947368421052599441,1.31578947368421084185,0.78947368421052654952,0.00000000000000000000,0.00000000000000000000,0.00000000000000000000,1.14754098360655754085,3.93442622950819753669,2.95081967213114459980,1.47540983606557407626,0.16393442622950821219,0.16393442622950821219,0.16393442622950821219,18.00000000000000000000,-0.00293877609355776628,-0.03386609556204638050,-0.10376073838818834771,-0.18646284316856998053,-0.20641803680896603224,-0.13339937832306289489,-0.00671683404181137693,0.03891726995575535419,0.15974973452465041079,0.32335660913275759976,0.46506729238423927253,0.56243601180608304713,0.57669977337471844958,0.54519621649755212189,0.48713890957824007577,0.46645672805892279822,0.47877658127014904865,0.54484279361414889031,0.62177005054553324825,0.71865035057371973171,0.79347335328574386537,0.86620747774181472423,0.90419029861436162054,0.94391050970414591692,0.96122813662898498599,0.16751262849740097827,0.82200000000000006395,0.20400000000000001465,0.61799999999999999378,0.11799999999999999378,0.04103269305147655421,0.27800000000000002487,-0.02474734031461109374,0.43399999999999999689,0.51334409113030521343,0.00418955034616778910,0.23000000000000000999,0.38800000000000001155,1.72863340537231957583,0.24836802645586536498,0.75163197354413457951,0.14376316564361596440,0.33839951074769530903,0.52848894274691005091,0.28012091629104474144,0.47151105725308989358,0.20400000000000001465,0.24836802645586536498,0.60999999999999998668,0.74189052979682434952,0.81400000000000005684,0.99025855625268977001,2.99115384615384627409,0.11799999999999999378,0.14357063580149043158,0.39000000000000001332,0.47477972321003869549,0.50800000000000000711,0.61835035901152912707,3.30714285714285738393,0.06999999999999999278,0.08512197331762894059,0.09400000000000000022,0.11442388276065143526,0.16400000000000000688,0.19954585607828037586,1.34722222222222232091,1.07196961083040953611,4.45323719926529548729,9.22956201825263100602,4.77264588503611086878,5.52520681009570502340,14.00220790328874187480,0.19388288895910829601,0.80611711104089167623,0.65907301250318894859,0.34092698749681105141,0.28315165728956653846,0.71684834271043340603,0.78058492087453423824,0.39524309812156688260,0.00424667679471929516,-0.00552487300027726391,-0.00492023737032842856,-0.00447429893639522680,0.00244478011709300946,0.43598476570795535734,0.88049812912366898221,0.88427654244522002625,0.87685520407046069202,0.51643962487123795668,-1.30140753712513035367,-1.15881672985183059588,-1.05376035660776889991,0.57610863714531856949,2.01968396949005191132,2.02840309047388656083,2.01140506944161456815,1.18463875141024499449,0.06199999999999999956,0.11200000000000000233,0.02200000000000000219,0.00800000000000000017,0.14999999999999999445,0.07557305941244421565,0.13638021246234344197,0.02667331083376747042,0.00974144374731024387,0.18263645080673779342,0.14199999999999998734,0.02999999999999999889,-0.00800000000000000017,0.00000000000000000000,0.14999999999999999445,0.17279496704342114932,0.03641475458107771429,-0.00974144374731024387,0.00000000000000000000,0.18263645080673779342,0.33506091218915068364,-0.00500616555682833770,0.91116954933446936415,0.00044429482432640696
X1009,X1009_13,152.55801398869067497799,85.49830991927626655524,33.00000000000000000000,0.01789046215128993825,0.01127346044307732907,70.09345794392523032457,107.00000000000000000000,0.93558352439346248453,1.00000000000000000000,0.88419830786773467857,28.00000000000000000000,0.87209412605688374498,19.00000000000000000000,0.89671950670507238890,14.00000000000000000000,0.76462488785259852264,10.00000000000000000000,2.05882352941176449690,0.58823529411764707842,0.58823529411764685637,0.58823529411764718944,1.17647058823529437888,2.69841269841269859597,1.11111111111111116045,0.63492063492063466335,0.79365079365079382878,2.53968253968253998565,0.31746031746031716514,0.47619047619047633058,0.31746031746031749821,0.31746031746031749821,0.79365079365079382878,17.00000000000000000000,0.00000000000000000000,0.88235294117647056211,0.88235294117647022905,1.17647058823529437888,2.05882352941176494099,1.42857142857142860315,0.47619047619047616404,4.60317460317460103170,3.01587301587301626071,0.47619047619047633058,0.00000000000000000000,0.00000000000000000000,0.00000000000000000000,0.00000000000000000000,0.00000000000000000000,10.00000000000000000000,1.17647058823529415683,0.29411764705882353921,0.29411764705882342819,1.47058823529411797360,1.76470588235294156831,0.31746031746031744269,0.31746031746031744269,0.15873015873015866584,0.15873015873015874910,1.74603174603174648993,5.23809523809523369664,0.95238095238095266115,1.11111111111111138250,0.00000000000000000000,0.00000000000000000000,6.00000000000000000000,1.47058823529411775155,0.58823529411764707842,0.88235294117647022905,0.29411764705882359472,1.76470588235294156831,0.00000000000000000000,0.00000000000000000000,0.00000000000000000000,0.00000000000000000000,0.31746031746031749821,1.11111111111111027228,4.44444444444444553000,2.06349206349206415467,1.11111111111111138250,0.95238095238095266115,20.00000000000000000000,1.17647058823529415683,1.17647058823529415683,0.58823529411764685637,1.17647058823529437888,0.88235294117647078416,0.00000000000000000000,0.00000000000000000000,0.00000000000000000000,0.47619047619047633058,3.65079365079365159019,4.28571428571428203469,1.11111111111111138250,0.15873015873015874910,0.15873015873015874910,0.15873015873015874910,15.00000000000000000000,0.00222275861564571325,-0.02973987138060589508,-0.12421733599161075001,-0.21639619305124235815,-0.24554731079651287429,-0.17225600206454380614,-0.00997241551528995317,0.03636273733413421944,0.14583337035721941066,0.27799530442628894722,0.38480713939427152459,0.44364789495368861516,0.43672374777577133154,0.40747600173701964410,0.38498856385053531470,0.40982233074633878100,0.46663976348331615007,0.55311241643730513218,0.63365363982408962062,0.71182100190280594987,0.76500656130851818482,0.81261026201929809076,0.83885715950616612790,0.86830190428962272797,0.88457621528275875988,0.20941307549723037207,0.86199999999999998845,0.19400000000000000577,0.66799999999999992717,0.10599999999999999700,0.06827385255745117842,0.26600000000000001421,-0.03277237411868944017,0.42199999999999998623,0.45882797592859075886,0.00426873660900106700,0.22800000000000000822,0.44000000000000000222,2.14564488179189671868,0.22647449952426990105,0.77352550047573009895,0.12386726363120174887,0.31042587434587115558,0.49214817553673095851,0.26567367601246105746,0.50785182446326904149,0.12199999999999999734,0.14170210664027133030,0.42399999999999998801,0.49210801183186780872,0.54600000000000004086,0.63381011847213908350,3.47380952380952390257,0.08599999999999999312,0.10000306922640148088,0.19200000000000000400,0.21929502746957627024,0.27800000000000002487,0.31929809669597775112,2.21818181818181825449,0.05600000000000000117,0.06529551375013427361,0.07999999999999998779,0.09283031110446113288,0.13600000000000000977,0.15812582485459539261,1.42857142857142860315,1.37943123347769214249,7.26023398358933746977,16.30468346489007203104,10.26711193715282277594,8.63966521706703005634,26.57179540204289480698,0.15942574965547678945,0.84057425034452326607,0.61361726584185238842,0.38638273415814761158,0.24507183074404698120,0.75492816925595296329,0.62029327949370427486,0.43412216172140327686,0.00732712674951550499,-0.00890821111253889408,-0.00744087169083521016,-0.00656772950394116095,0.00326134882468659404,0.23209780671756663484,0.96167156801033115698,0.97273924757235075145,0.96217661477177018892,0.46479524781645037423,-1.21423027763140534141,-1.01361541846028924141,-0.89447671783190529915,0.44288511569933208811,4.26352015336350120833,4.31201554847906010082,4.26416690056751868099,2.02496099803031404107,0.05200000000000000455,0.11000000000000000056,0.02400000000000000050,0.00800000000000000017,0.15599999999999999978,0.06090819847919831664,0.12825457890213770584,0.02798379160720040545,0.00932793053573346791,0.18161799544987186628,0.14200000000000001510,0.03200000000000000067,-0.00800000000000000017,0.00000000000000000000,0.15599999999999999978,0.16556630104507158441,0.03731172214293387163,-0.00932793053573346791,0.00000000000000000000,0.18161799544987186628,0.25097674296145711104,-0.00771549472741702574,0.69386185866078908813,0.00025605941770709742
X1009,X1009_15,141.74308059627043121509,80.92016081424787898868,34.00000000000000000000,0.00984146357173898770,0.00985958242839254755,78.53403141361256700748,95.50000000000000000000,0.94708387866603715999,79.00000000000000000000,0.90510494718910161627,29.00000000000000000000,0.90018810148553840556,19.00000000000000000000,0.89796795002318907652,13.00000000000000000000,0.80966636032263328282,9.00000000000000000000,2.00000000000000000000,0.50000000000000000000,0.74999999999999977796,0.50000000000000011102,1.25000000000000044409,1.83333333333333325932,1.00000000000000000000,0.66666666666666640761,3.83333333333333436954,0.33333333333333337034,0.33333333333333303727,0.50000000000000011102,0.16666666666666668517,0.50000000000000011102,0.83333333333333359239,20.00000000000000000000,0.00000000000000000000,0.50000000000000000000,0.99999999999999966693,1.25000000000000044409,2.25000000000000044409,1.50000000000000000000,0.66666666666666662966,3.99999999999999866773,1.83333333333333370341,2.00000000000000044409,0.00000000000000000000,0.00000000000000000000,0.00000000000000000000,0.00000000000000000000,0.00000000000000000000,12.00000000000000000000,1.00000000000000000000,0.50000000000000000000,0.49999999999999983347,1.00000000000000022204,2.00000000000000044409,0.50000000000000000000,0.16666666666666665741,0.33333333333333320381,0.16666666666666668517,2.16666666666666696273,3.16666666666666385410,1.66666666666666718477,0.83333333333333359239,1.00000000000000022204,0.00000000000000000000,7.00000000000000000000,1.50000000000000000000,0.75000000000000000000,0.49999999999999983347,0.50000000000000011102,1.75000000000000044409,0.00000000000000000000,0.00000000000000000000,0.00000000000000000000,0.00000000000000000000,1.16666666666666696273,0.83333333333333259318,2.50000000000000044409,2.83333333333333392545,1.16666666666666696273,1.50000000000000022204,25.00000000000000000000,1.25000000000000000000,1.00000000000000000000,0.74999999999999977796,1.00000000000000022204,1.00000000000000022204,0.00000000000000000000,0.00000000000000000000,0.00000000000000000000,1.33333333333333348136,4.50000000000000088818,2.49999999999999777955,1.16666666666666696273,0.16666666666666668517,0.16666666666666668517,0.16666666666666668517,19.00000000000000000000,-0.00584484114306057546,-0.03738062107848956483,-0.10096667966270020389,-0.17633424605829656207,-0.19072229106445726110,-0.12013467936386568180,-0.01197100591227068765,0.00989999135737297704,0.09984640362064738095,0.23044164987214282858,0.35918521581044748903,0.46094384678490618601,0.49966364893321379981,0.48622002549534543148,0.43548572533909390980,0.39693841621406067421,0.38591941290280618038,0.42565970848518064340,0.49385950627824126702,0.58819108426968180758,0.67717725800185624152,0.76507504602073550526,0.82870890302063560107,0.88837599696099989188,0.93184392781213976065,0.25490999701522165655,0.76800000000000001599,0.19200000000000000400,0.57600000000000006750,0.10599999999999999700,0.04857819108294147981,0.26600000000000001421,-0.02752507839974649428,0.41999999999999998446,0.56884489182775499483,0.00551664462785875220,0.22800000000000000822,0.34799999999999997602,1.73329350026856898737,0.25032734041490739552,0.74967265958509254897,0.13822555500544328466,0.34683167201786613276,0.54745846357182470499,0.29713112315691725396,0.45254153642817529501,0.19200000000000000400,0.25032734041490739552,0.56800000000000006040,0.73924235373447144681,0.76000000000000000888,0.98956969414937889784,2.95833333333333348136,0.11399999999999999023,0.14871245395170673564,0.37800000000000000266,0.49309254352320708303,0.49199999999999999289,0.64180499747491381868,3.31904761904761880231,0.06800000000000000488,0.08879019331606499699,0.09400000000000000022,0.12247549816444297521,0.16200000000000000511,0.21126569148050794444,1.38888888888888883955,1.06476675964275369068,5.07989517669006396261,10.82023792306146603437,5.67056842045496800608,6.14466193633281676512,16.49080634351643226410,0.17345182838204395437,0.82654817161795601788,0.65581674973245762672,0.34418325026754237328,0.27160538074307183365,0.72839461925692816635,0.64245510088350077371,0.42104208937128834167,0.00511998498850606276,-0.00652258726694215918,-0.00566355056323109007,-0.00508332736719724343,0.00290030871558494274,0.46027447490958450782,0.97440302078188145707,0.98300646084074383424,0.97497101318500134504,0.56606205810682341806,-1.27437055479656669021,-1.10688023186912198881,-0.99363977366527156398,0.56831598716656595016,2.11713845327277772057,2.13572995796256748235,2.11824537362372744553,1.22999226221965951567,0.05199999999999999761,0.10799999999999999878,0.02400000000000000050,0.00800000000000000017,0.15399999999999999800,0.06766439444325214603,0.14094172256917070207,0.03129091755186342444,0.01043030585062114206,0.20057019845831622340,0.14000000000000001332,0.03200000000000000067,-0.00800000000000000017,0.00000000000000000000,0.15399999999999999800,0.18266294597165527724,0.04172122340248456823,-0.01043030585062114206,0.00000000000000000000,0.20057019845831622340,0.25783346357126096793,-0.00582884678960607361,0.82614945073782686258,0.00030322334043739852
X1009,X1009_16,141.42915113360075451965,76.67226448778436065368,34.00000000000000000000,0.01525502970471773884,0.01233017193565609342,70.09345794392523032457,107.00000000000000000000,0.93876017207300166412,1.00000000000000000000,0.88789919313367793308,28.00000000000000000000,0.87382537006555516257,19.00000000000000000000,0.90233381497081333045,13.00000000000000000000,0.78403908849711123619,10.00000000000000000000,2.10526315789473672524,0.52631578947368418131,0.52631578947368407029,0.78947368421052654952,1.05263157894736858466,2.62295081967213095098,1.14754098360655731881,0.81967213114754078340,2.78688524590163977379,0.49180327868852469209,0.32786885245901609132,0.32786885245901642438,0.32786885245901642438,0.32786885245901642438,0.81967213114754122749,19.00000000000000000000,0.00000000000000000000,0.78947368421052632748,1.05263157894736814058,1.05263157894736858466,2.10526315789473716933,1.47540983606557385421,0.65573770491803273774,2.78688524590163844152,3.77049180327868960205,1.31147540983606569753,0.00000000000000000000,0.00000000000000000000,0.00000000000000000000,0.00000000000000000000,0.00000000000000000000,11.00000000000000000000,1.05263157894736836262,0.52631578947368418131,0.26315789473684203514,1.05263157894736858466,2.10526315789473716933,0.32786885245901636887,0.16393442622950818444,0.32786885245901625785,0.16393442622950821219,1.80327868852459061166,5.08196721311474952643,0.65573770491803284877,1.47540983606557407626,0.00000000000000000000,0.00000000000000000000,7.00000000000000000000,1.57894736842105265495,0.52631578947368418131,0.52631578947368407029,0.78947368421052654952,1.57894736842105309904,0.00000000000000000000,0.00000000000000000000,0.00000000000000000000,0.00000000000000000000,0.65573770491803284877,0.98360655737704838497,4.09836065573770547132,2.29508196721311508171,0.98360655737704938417,0.98360655737704938417,3.00000000000000000000,1.57894736842105265495,0.52631578947368418131,0.78947368421052599441,1.05263157894736858466,1.05263157894736858466,0.00000000000000000000,0.00000000000000000000,0.00000000000000000000,0.65573770491803284877,3.27868852459016490997,4.42622950819671778788,1.14754098360655754085,0.16393442622950821219,0.16393442622950821219,0.16393442622950821219,17.00000000000000000000,-0.00298300290061219919,-0.03583451859833139408,-0.11501336693852665105,-0.19968490159298057929,-0.22084444754262536059,-0.14332453299650246836,-0.00754492796858367495,0.03516328138891311461,0.14429305725289062745,0.28868296924742087306,0.41284814443411010920,0.50195359429943620100,0.52116705906876314991,0.50634876038437015566,0.47252440130616879532,0.47487544129625763878,0.50318499687450801705,0.57586509700897259290,0.65063155535051531153,0.73838146881107391550,0.80358879887391942987,0.87016603195667607817,0.90600045437372211943,0.94409622236128398765,0.95800334997707914386,0.17504529701370163952,0.85000000000000008882,0.20400000000000001465,0.64600000000000001865,0.11200000000000000233,0.07132485669798836747,0.27600000000000002309,-0.03773706150479358423,0.44000000000000000222,0.35811934220671770568,0.00302992812408139911,0.23599999999999998757,0.41000000000000003109,2.75751905909500738545,0.24023715936469139387,0.75976284063530852286,0.13191507224116907904,0.32503970580544294666,0.51834600891281790158,0.27810884954812647996,0.48165399108718209842,0.11599999999999999201,0.13658960260377284168,0.37399999999999999911,0.44027426989094714527,0.48999999999999999112,0.57686387249472004246,3.22857142857142864756,0.08799999999999999489,0.10364755676091855219,0.13000000000000000444,0.15303280983406336579,0.21799999999999999933,0.25668036659498189023,1.47727272727272751496,0.05799999999999999600,0.06825111410223591579,0.07199999999999999456,0.08480254644075155279,0.13000000000000000444,0.15305366054298746858,1.24553571428571419055,1.60358591441963271862,8.29319325508988214324,17.24241331230849283429,8.53179257139624880324,9.89677916950951441777,25.77420588370474163753,0.16239867694139659138,0.83760132305860346413,0.66922968132053450852,0.33077031867946549148,0.27742159265277110958,0.72257840734722889042,0.71611236237427866591,0.41624815562836237071,0.00740028158299736727,-0.00917125895073001018,-0.00775124178464825508,-0.00692366163393720591,0.00332429309098163095,0.18925248525498283847,0.96940026650798716279,0.98032673926657798447,0.96758695115042070434,0.37764416035520592674,-1.23978942744784226271,-1.04796745579528272074,-0.93604592816319875936,0.44952742121050909274,5.14451448642460906768,5.20080084629262717755,5.13338259527175111430,2.00625203887545255910,0.05799999999999999600,0.11199999999999998845,0.02600000000000000228,0.00800000000000000017,0.16000000000000000333,0.06833848850153692589,0.13182769784186806894,0.03064846786120289587,0.00942250516008350490,0.18845010320167010498,0.14599999999999999090,0.03400000000000000244,-0.00800000000000000017,0.00000000000000000000,0.16000000000000000333,0.17189867086315446798,0.04007097302128639904,-0.00942250516008350490,0.00000000000000000000,0.18845010320167010498,0.29469653530012984710,-0.00807977029657228930,0.74422395651063899535,0.00048880293369301005
X1009,X1009_17,132.14338337768151632190,75.73324113694519610362,37.00000000000000000000,0.00537696009180384064,0.00637351642235275528,79.36507936507936733506,94.50000000000000000000,0.95146042079985515549,79.00000000000000000000,0.91193579834473559309,29.00000000000000000000,0.90086514802072148456,19.00000000000000000000,0.93589378490705998903,12.00000000000000000000,0.87090443633593928041,8.00000000000000000000,2.00000000000000000000,0.50000000000000000000,0.74999999999999977796,0.50000000000000011102,1.25000000000000044409,1.83333333333333325932,1.00000000000000000000,0.83333333333333314830,3.66666666666666740682,0.50000000000000011102,0.33333333333333303727,0.33333333333333337034,0.16666666666666668517,0.50000000000000011102,0.83333333333333359239,20.00000000000000000000,0.00000000000000000000,0.25000000000000000000,1.24999999999999955591,1.25000000000000044409,2.25000000000000044409,1.50000000000000000000,0.66666666666666662966,3.16666666666666563046,2.50000000000000044409,1.66666666666666718477,0.49999999999999961142,0.00000000000000000000,0.00000000000000000000,0.00000000000000000000,0.00000000000000000000,12.00000000000000000000,1.00000000000000000000,0.50000000000000000000,0.24999999999999991673,1.00000000000000022204,2.25000000000000044409,0.50000000000000000000,0.33333333333333331483,0.16666666666666660190,0.33333333333333337034,2.33333333333333392545,3.33333333333333037274,1.16666666666666696273,1.00000000000000022204,0.83333333333333359239,0.00000000000000000000,7.00000000000000000000,1.50000000000000000000,0.75000000000000000000,0.74999999999999977796,0.50000000000000011102,1.50000000000000044409,0.00000000000000000000,0.00000000000000000000,0.00000000000000000000,0.00000000000000000000,1.33333333333333348136,0.66666666666666607455,2.66666666666666696273,2.50000000000000044409,1.16666666666666696273,1.66666666666666718477,27.00000000000000000000,1.50000000000000000000,0.50000000000000000000,0.74999999999999977796,1.25000000000000044409,1.00000000000000022204,0.00000000000000000000,0.00000000000000000000,0.00000000000000000000,1.33333333333333348136,2.16666666666666696273,3.33333333333333037274,2.33333333333333392545,0.50000000000000011102,0.16666666666666668517,0.16666666666666668517,19.00000000000000000000,0.00278242811255807266,-0.04133446897333700049,-0.11497747581005621220,-0.20045494082312015349,-0.20040528534572885078,-0.11515076844692551106,-0.00705726210516450896,0.02156570849954701080,0.12656299248269500812,0.26612343957331618949,0.41479868317248780318,0.52777345110602458256,0.58929279853837146508,0.58166589260770074077,0.53744184136831996135,0.48050625051677675614,0.45530089886688618339,0.46286174542930097475,0.51562523004235827351,0.58707605559995912348,0.67608576083194682482,0.75498946419895152093,0.83422264158927750266,0.89445092579691398704,0.95203331956539705150,0.25560301947821523205,0.75359999999999993658,0.19039999999999998592,0.56320000000000003393,0.10240000000000000491,0.05812013503236805601,0.26560000000000000275,-0.03546665851389476515,0.42560000000000003384,0.26534243114903738325,0.00663618183852859866,0.23519999999999999241,0.32800000000000001377,3.00729084254980927327,0.25268758488498843651,0.74731241511501167452,0.13587606500110785412,0.35249641532174480485,0.56481234704321681139,0.31212476215822837489,0.43518765295678318861,0.11200000000000001621,0.14866920712493886247,0.37279999999999996474,0.49477931609869363339,0.48480000000000000870,0.64344852322363244035,3.32857142857142829229,0.08000000000000000167,0.10619229080352779460,0.11679999999999998717,0.15501023899641497295,0.19680000000000000271,0.26120252979994268427,1.46000000000000018652,0.05600000000000000810,0.07433460356246943124,0.06880000000000000004,0.09129486451429831562,0.12479999999999999427,0.16562946807676776073,1.22857142857142864756,1.21812884390056508366,6.25344025426691185743,13.14369931929179458052,6.29040161045248780169,7.47156909816747827335,19.43410092974428238222,0.16283871960977985838,0.83716128039022019713,0.67621440731889992382,0.32378559268110002067,0.27769730712837209508,0.72230269287162784941,0.71834856692789283983,0.41119930154362371866,0.00619726265637304125,-0.00754800159970436813,-0.00693865813570948564,-0.00641681029611751441,0.00360665830149443098,0.13766730560630066615,0.78794755877229194496,0.79578058932097017752,0.78748418842330014655,0.25980432640740952488,-1.21986016628777105275,-1.12193939067878400984,-1.03762572273141939760,0.58198422211925104897,5.76689836262011557011,5.82732164481394221411,5.76680785361503289721,1.89861988249753155245,0.04640000000000000374,0.11679999999999998717,0.01920000000000000179,0.00800000000000000017,0.15679999999999999494,0.06154146143863840901,0.15498686358734531376,0.02554003077865190166,0.01061922908035277738,0.20810638439817888412,0.14399999999999998912,0.02720000000000000195,-0.00800000000000000017,0.00000000000000000000,0.15679999999999999494,0.19114612344635001362,0.03615925985900467904,-0.01061922908035277738,0.00000000000000000000,0.20810638439817888412,0.35772072500318163879,-0.00696409449274030569,0.93970494712243257673,0.00009447993376337537
X1009,X1009_18,137.94086899577632721048,74.50554997068496732027,33.00000000000000000000,0.00755606412162377738,0.00652292901682709550,70.09345794392523032457,107.00000000000000000000,0.94298869715523614410,1.00000000000000000000,0.89208951851202744621,28.00000000000000000000,0.88009461253424370319,19.00000000000000000000,0.87730120062132310732,13.00000000000000000000,0.81927293176961091259,9.00000000000000000000,1.84210526315789469010,0.78947368421052632748,0.52631578947368407029,0.52631578947368429233,1.31578947368421084185,2.45901639344262301634,0.98360655737704916213,0.81967213114754078340,3.11475409836065608715,0.49180327868852469209,0.32786885245901609132,0.32786885245901642438,0.32786885245901642438,0.32786885245901642438,0.81967213114754122749,19.00000000000000000000,0.00000000000000000000,0.78947368421052632748,1.05263157894736814058,1.31578947368421084185,1.84210526315789513419,1.47540983606557385421,0.49180327868852458106,3.77049180327868693752,2.95081967213114815252,1.31147540983606569753,0.00000000000000000000,0.00000000000000000000,0.00000000000000000000,0.00000000000000000000,0.00000000000000000000,11.00000000000000000000,1.31578947368421061981,0.26315789473684209065,0.26315789473684203514,1.31578947368421084185,1.84210526315789513419,0.32786885245901636887,0.16393442622950818444,0.32786885245901625785,0.16393442622950821219,2.13114754098360714707,4.91803278688524159179,0.65573770491803284877,1.31147540983606569753,0.00000000000000000000,0.00000000000000000000,6.00000000000000000000,1.31578947368421061981,0.78947368421052632748,0.78947368421052599441,0.52631578947368429233,1.57894736842105309904,0.00000000000000000000,0.00000000000000000000,0.00000000000000000000,0.00000000000000000000,0.81967213114754122749,0.81967213114754033931,4.26229508196721429414,1.80327868852459061166,1.14754098360655754085,1.14754098360655754085,3.00000000000000000000,1.31578947368421061981,0.52631578947368418131,0.78947368421052599441,1.05263157894736858466,1.31578947368421084185,0.00000000000000000000,0.00000000000000000000,0.00000000000000000000,0.98360655737704938417,2.13114754098360714707,4.42622950819671778788,1.80327868852459061166,0.49180327868852469209,0.16393442622950821219,0.00000000000000000000,16.00000000000000000000,-0.00369354091478253654,-0.04294944971704027503,-0.12525580189990478952,-0.21218247493383096680,-0.22341673326873837113,-0.13859372633637898065,-0.00420302371048315946,0.03970014272347808376,0.14550988096057063115,0.28857995625722798749,0.41185962822373101133,0.49643930657173795939,0.50573231506728522078,0.48076161872021466737,0.44046933999784088076,0.44011493267071771784,0.46742635578195507184,0.54037525990437229595,0.61638021341523741015,0.70729670009673750730,0.77717973374670246134,0.84972582176889299710,0.89310698732121818200,0.93928028835235499727,0.95883155680406217947,0.21056170947017099904,0.86199999999999998845,0.20599999999999998868,0.65600000000000002753,0.11200000000000000233,0.06664063224067852398,0.28600000000000003197,-0.03563077133684047770,0.44400000000000000577,0.37718044674515083248,0.00383424032323410879,0.23799999999999998934,0.41800000000000003819,2.56044694692918639589,0.23900695548176942307,0.76099304451823068796,0.12996600941035768573,0.33183981934631062716,0.51523281980266577573,0.27622586432089635267,0.48476718019733427978,0.12199999999999999734,0.14154287377846316853,0.40400000000000002576,0.46873062457708469797,0.52600000000000002309,0.61027349835554789426,3.31354166666666705154,0.08999999999999999667,0.10440972823264671465,0.13600000000000000977,0.15781586856972004695,0.22600000000000000644,0.26222559680236673385,1.51325757575757591233,0.06199999999999999956,0.07190780052559522795,0.07799999999999999989,0.09047437329850346877,0.14000000000000001332,0.16238217382409869671,1.26339285714285720630,1.64539642017932563611,8.18756087776831087410,17.17994204314889827856,9.20244564912352913666,9.83295729794763673226,26.38238769227242386251,0.16692528735045733534,0.83307471264954269241,0.65069843943267891007,0.34930156056732108993,0.27164867239921786091,0.72835132760078213909,0.65714229823632641647,0.42588540540544028712,0.00686026557316110966,-0.00805980394715907766,-0.00684172193487483926,-0.00618888447855792112,0.00340819657071465831,0.18401440115553713284,0.94406928616775542817,0.96145329747547725319,0.95135318395452972418,0.38794455785428144656,-1.17495717540846467131,-0.99761803889184785810,-0.90246814512432993460,0.49679017901850575090,5.14962269635985148142,5.24486027839597124256,5.19009813793522667424,2.11473880224035237774,0.05399999999999999939,0.11599999999999999201,0.02799999999999999711,0.00800000000000000017,0.16400000000000000688,0.06262451413914110754,0.13459722724912268066,0.03250192770705147283,0.00928328638645412041,0.19031779627677153366,0.15199999999999999623,0.03600000000000000422,-0.00800000000000000017,0.00000000000000000000,0.16400000000000000688,0.17638244134262828777,0.04178521409350559324,-0.00928328638645412041,0.00000000000000000000,0.19031779627677153366,0.22833882958920742601,-0.00717141087929516492,0.72512900860771312139,0.00029316589343449779
X1009,X1009_19,122.98344929271898706702,67.30488055162805949294,36.00000000000000000000,0.00438087295641032340,0.00354812049265642096,74.25742574257425587803,101.00000000000000000000,0.95003510816620551083,0.00000000000000000000,0.91008454230973345744,29.00000000000000000000,0.89091467060051510174,18.00000000000000000000,0.90625451582109251003,12.00000000000000000000,0.82447348551305699171,8.00000000000000000000,1.75000000000000000000,0.75000000000000000000,0.49999999999999983347,0.75000000000000022204,1.25000000000000044409,2.16666666666666651864,1.00000000000000000000,0.99999999999999966693,3.16666666666666696273,0.50000000000000011102,0.33333333333333303727,0.33333333333333337034,0.33333333333333337034,0.33333333333333337034,0.83333333333333359239,20.00000000000000000000,0.00000000000000000000,0.50000000000000000000,0.99999999999999966693,1.25000000000000044409,2.25000000000000044409,1.50000000000000000000,0.83333333333333337034,3.66666666666666518637,2.33333333333333392545,1.66666666666666718477,0.00000000000000000000,0.00000000000000000000,0.00000000000000000000,0.00000000000000000000,0.00000000000000000000,11.00000000000000000000,1.25000000000000000000,0.50000000000000000000,0.24999999999999991673,1.00000000000000022204,2.00000000000000044409,0.33333333333333331483,0.33333333333333331483,0.33333333333333320381,0.33333333333333337034,2.50000000000000044409,3.66666666666666341001,1.00000000000000022204,1.50000000000000022204,0.00000000000000000000,0.00000000000000000000,6.00000000000000000000,1.50000000000000000000,0.50000000000000000000,0.99999999999999966693,0.50000000000000011102,1.50000000000000044409,0.00000000000000000000,0.00000000000000000000,0.00000000000000000000,0.00000000000000000000,1.00000000000000022204,0.99999999999999922284,4.66666666666666785090,0.83333333333333359239,1.66666666666666718477,0.83333333333333359239,2.00000000000000000000,1.25000000000000000000,0.75000000000000000000,0.49999999999999983347,1.25000000000000044409,1.25000000000000044409,0.00000000000000000000,0.00000000000000000000,0.00000000000000000000,0.83333333333333359239,1.16666666666666696273,5.49999999999999555911,1.66666666666666718477,0.66666666666666674068,0.16666666666666668517,0.00000000000000000000,17.00000000000000000000,0.00026224415969932323,-0.04488806026862014048,-0.12382089301849727447,-0.20982128257654952819,-0.21026264963963256505,-0.12292132793747614916,-0.00816564519905531652,0.01822535833186056387,0.11708976183216986133,0.25794139840661600704,0.40523055032012783583,0.52030315179356101396,0.57830560565538591256,0.58029327495547999849,0.54883552637653409967,0.51536365128287664472,0.50559825734330654523,0.52736339123631426062,0.57485240858821939902,0.63916520111820607219,0.71084122648697778413,0.77942073826695690286,0.84009726938577800048,0.89207180130658403350,0.93710486163559481021,0.22807584847451350951,0.80800000000000005151,0.20200000000000001288,0.60599999999999998312,0.10599999999999999700,0.06838269384881201507,0.28400000000000003020,-0.04093813793089448594,0.45200000000000001288,0.31309736621548889257,0.00468038524815822532,0.25000000000000000000,0.35600000000000003864,3.13845638854602171364,0.25011226139940512248,0.74988773860059487752,0.13120123307054779027,0.35165576539894305430,0.55975006497444335096,0.30963780357503828400,0.44024993502555659353,0.11999999999999999556,0.14863878541107164444,0.38200000000000000622,0.47338950012994884808,0.50200000000000000178,0.62202828554102052028,3.18333333333333357018,0.08999999999999999667,0.11138272834907157749,0.12199999999999999734,0.15108976580322849848,0.21199999999999999400,0.26247249415230006209,1.35795454545454541417,0.05799999999999999600,0.07174571890611915193,0.07399999999999999634,0.09163425163879984625,0.13200000000000000622,0.16337997054491898430,1.28125000000000000000,1.51196535105043095015,8.54967814339994980344,17.19348370178216711679,7.82005200928501231772,10.06164349445037942132,25.01353571106717765815,0.14995569242913595054,0.85004430757086413273,0.68703098630844805506,0.31296901369155194494,0.28686404387324027088,0.71313595612675984015,0.77351753423668245802,0.40992353602667019885,0.00711686479752841536,-0.00817764261931522296,-0.00722505731927960970,-0.00662953520426029508,0.00380493457424964376,0.16189397266306007617,0.96678331062224487358,0.97886053769959890936,0.96848600828553932374,0.33753071338880941132,-1.14959258444073331162,-1.01614361443774736671,-0.93241648967532464454,0.53545939602903080967,5.99574466811993822546,6.07224996727691213039,6.00752866342371838471,2.10036831072889196292,0.04800000000000000100,0.12199999999999999734,0.02400000000000000050,0.00800000000000000017,0.15800000000000000155,0.05945551416442865916,0.15121610499870050126,0.02953138987553784525,0.00990925236073810986,0.19580409483380978308,0.15399999999999999800,0.03200000000000000067,-0.00800000000000000017,0.00000000000000000000,0.15800000000000000155,0.19065674723497644250,0.03944064223627595511,-0.00990925236073810986,0.00000000000000000000,0.19580409483380978308,0.26350812364330783444,-0.00741277124440041773,0.79896751967233869962,0.00022941788073981315
X1009,X1009_20,128.56928107448857190320,72.56516846202765691487,33.00000000000000000000,0.01106280003185115303,0.00763378058617879360,70.09345794392523032457,107.00000000000000000000,0.93733569420416973372,1.00000000000000000000,0.90041789252594706117,29.00000000000000000000,0.87252128113757765338,19.00000000000000000000,0.87154575453612315172,13.00000000000000000000,0.81751523858815600132,9.00000000000000000000,1.94444444444444441977,0.83333333333333337034,0.55555555555555535818,0.55555555555555569125,1.11111111111111138250,2.74193548387096752705,1.12903225806451623647,0.80645161290322553427,2.90322580645161343327,0.32258064516129036914,0.32258064516129003607,0.32258064516129036914,0.32258064516129036914,0.32258064516129036914,0.80645161290322608938,18.00000000000000000000,0.00000000000000000000,0.55555555555555558023,1.11111111111111071637,1.11111111111111138250,2.22222222222222276500,1.45161290322580649459,0.64516129032258062725,1.12903225806451557034,5.16129032258064590621,1.61290322580645217876,0.00000000000000000000,0.00000000000000000000,0.00000000000000000000,0.00000000000000000000,0.00000000000000000000,11.00000000000000000000,1.11111111111111116045,0.55555555555555558023,0.27777777777777767909,1.11111111111111138250,1.94444444444444486386,0.32258064516129031363,0.32258064516129031363,0.16129032258064510130,0.32258064516129036914,2.09677419354838745491,4.83870967741935054107,0.64516129032258073828,1.29032258064516147655,0.00000000000000000000,0.00000000000000000000,6.00000000000000000000,1.66666666666666674068,0.55555555555555558023,0.55555555555555535818,0.55555555555555569125,1.66666666666666696273,0.00000000000000000000,0.00000000000000000000,0.00000000000000000000,0.00000000000000000000,0.64516129032258073828,0.96774193548387021924,5.48387096774193683046,0.80645161290322608938,1.29032258064516147655,0.80645161290322608938,3.00000000000000000000,1.11111111111111116045,1.11111111111111116045,0.55555555555555535818,1.11111111111111138250,1.11111111111111138250,0.00000000000000000000,0.00000000000000000000,0.00000000000000000000,0.48387096774193560922,1.29032258064516147655,6.29032258064515570339,1.45161290322580671663,0.16129032258064518457,0.16129032258064518457,0.16129032258064518457,16.00000000000000000000,-0.00351056192055927479,-0.04314722645814164648,-0.13590303506273185286,-0.21982237710542490428,-0.23625001994215569234,-0.15242852239275614390,-0.00838323099374491294,0.03501174871799003774,0.15012824502936378268,0.30736348957031656148,0.44705575005426240187,0.54553683276877107389,0.56692597869558347679,0.55316010578637841988,0.52123235298362258217,0.52027229283002351945,0.53806057485345282210,0.59610139939110839968,0.65774184453685113905,0.73499835696223991821,0.79176143812623211993,0.85346177872385020624,0.88997613009943832285,0.93113408969471112009,0.94761402638319225389,0.18862150654503373470,0.87199999999999999734,0.19600000000000000755,0.67600000000000004530,0.10599999999999999700,0.06195555201410976598,0.28000000000000002665,-0.03513547802643554596,0.43800000000000000044,0.28577087868335337983,0.00399067028683281616,0.24199999999999999289,0.43399999999999999689,3.03593977601069520134,0.22624663072776279860,0.77375336927223714589,0.12209260242242918337,0.32348158705647966915,0.50667434734353133940,0.28042771661576854081,0.49332565265646866060,0.11599999999999999201,0.13408755626943147377,0.38000000000000000444,0.44050477040693225561,0.49599999999999999645,0.57459232667636372938,3.27976190476190465617,0.08599999999999999312,0.09969469740316143358,0.12800000000000000266,0.14782444971425812152,0.21399999999999999578,0.24751914711741956898,1.49090909090909073953,0.05600000000000000117,0.06494293779858129056,0.07599999999999999811,0.08769974355615914319,0.13200000000000000622,0.15264268135474040600,1.35714285714285720630,1.38623489356728102351,7.06985309649720861103,15.28043332161024636662,7.30060891417613433418,8.45608799006448919044,22.58104223578637714809,0.16402281961344686301,0.83597718038655322026,0.67727683422044449024,0.32272316577955550976,0.27265601200309463881,0.72734398799690547222,0.80926144950703193803,0.39844956043807555623,0.00663085668002137869,-0.00746012360973896671,-0.00663283549770926628,-0.00609116608361431888,0.00339018142744636208,0.12642827034772757822,0.84885641185944160636,0.86446015606601012138,0.85679226282295584127,0.29778766355186497838,-1.12460368680121458596,-1.00022380638975438849,-0.91861168783496705004,0.51208165911545588944,6.86359590453688195311,6.99102582343285749999,6.92866659314005417514,2.38870567498210739643,0.04400000000000000439,0.11999999999999999556,0.02400000000000000050,0.00800000000000000017,0.16600000000000000866,0.04997294241732788689,0.13916343813981704725,0.02783268762796340529,0.00927756254265446785,0.19211142209139606130,0.15199999999999999623,0.03200000000000000067,-0.00800000000000000017,0.00000000000000000000,0.16600000000000000866,0.17627368831043491171,0.03711025017061787140,-0.00927756254265446785,0.00000000000000000000,0.19211142209139606130,0.28215014830805107415,-0.00678736211399483952,0.79423180742350696359,0.00004478082488958636
X1009,X1009_21,127.17546966258453267073,72.86447887749267238178,36.00000000000000000000,0.00449706387437774115,0.00472104543180846149,75.00000000000000000000,100.00000000000000000000,0.94747449854341048159,1.00000000000000000000,0.91545625561268639814,29.00000000000000000000,0.89212101711215052724,19.00000000000000000000,0.87813064182383293588,13.00000000000000000000,0.84742610341360902204,8.00000000000000000000,2.00000000000000000000,0.75000000000000000000,0.49999999999999983347,0.75000000000000022204,1.00000000000000022204,1.83333333333333325932,1.16666666666666674068,1.99999999999999933387,2.50000000000000044409,0.33333333333333337034,0.33333333333333303727,0.33333333333333337034,0.33333333333333337034,0.33333333333333337034,0.83333333333333359239,20.00000000000000000000,0.00000000000000000000,0.50000000000000000000,1.24999999999999955591,1.00000000000000022204,2.25000000000000044409,1.50000000000000000000,0.66666666666666662966,1.66666666666666629659,4.00000000000000088818,1.66666666666666718477,0.49999999999999961142,0.00000000000000000000,0.00000000000000000000,0.00000000000000000000,0.00000000000000000000,12.00000000000000000000,1.00000000000000000000,0.50000000000000000000,0.24999999999999991673,1.25000000000000044409,2.00000000000000044409,0.50000000000000000000,0.33333333333333331483,0.16666666666666660190,0.33333333333333337034,2.00000000000000044409,3.99999999999999689138,1.00000000000000022204,0.83333333333333359239,0.83333333333333359239,0.00000000000000000000,7.00000000000000000000,1.50000000000000000000,0.50000000000000000000,0.99999999999999966693,0.25000000000000005551,1.75000000000000044409,0.00000000000000000000,0.00000000000000000000,0.00000000000000000000,0.00000000000000000000,1.33333333333333348136,0.66666666666666607455,3.16666666666666696273,2.33333333333333392545,0.66666666666666674068,1.83333333333333370341,3.00000000000000000000,1.25000000000000000000,0.75000000000000000000,0.74999999999999977796,1.25000000000000044409,1.00000000000000022204,0.00000000000000000000,0.00000000000000000000,0.00000000000000000000,1.16666666666666696273,1.00000000000000022204,4.99999999999999555911,1.83333333333333370341,0.50000000000000011102,0.33333333333333337034,0.16666666666666668517,18.00000000000000000000,0.00323715248924706092,-0.03334122059710438457,-0.10076518800959531619,-0.18852598713708146327,-0.19552421458066693294,-0.11530802698192121891,-0.00893778863545871029,0.01893304502945121481,0.12762996577927609998,0.27698019592411082801,0.43445921570554368873,0.55458031754592052032,0.61629365252493806260,0.61152223409626371708,0.56988462696100228300,0.51868409290589179150,0.49649795223480663875,0.50784337968497506033,0.55529369888327728688,0.61866070159375141646,0.69541503053949749180,0.76450047197088688566,0.82915881449323658448,0.87785503410374610134,0.92251235533191178195,0.22869374808985512559,0.79800000000000004263,0.20600000000000001643,0.59199999999999997069,0.11199999999999998845,0.06421667933146851803,0.28200000000000002842,-0.03973162528878992905,0.44800000000000000933,0.28299596567423390692,0.00657198164610046931,0.24199999999999999289,0.35000000000000003331,3.20474886935448832759,0.25825814430151539103,0.74174185569848460897,0.14037808373943383433,0.35347561202439309325,0.56173940221856211163,0.30348125791704672061,0.43826059778143788837,0.11999999999999999556,0.15063954938681245466,0.38200000000000000622,0.48011748727570879858,0.50200000000000000178,0.63075703666252125323,3.18333333333333357018,0.08799999999999999489,0.11046900288366248710,0.11599999999999999201,0.14543065085181516860,0.20400000000000001465,0.25589965373547762795,1.31818181818181812126,0.05799999999999999600,0.07287577596814134862,0.06800000000000000488,0.08517483109709018951,0.12600000000000000089,0.15805060706523155201,1.17857142857142860315,1.42443352287371038933,7.74299586474971235361,14.90382033737965272735,7.27420316948848544314,9.16742938762342340908,22.17802350686813994685,0.15573259950143800157,0.84426740049856197068,0.67060559535145980448,0.32939440464854014001,0.29224775528577362493,0.70775224471422637507,0.81575801048996920972,0.39544837712024566434,0.00671231647807334075,-0.00808592593091803091,-0.00719572059010273324,-0.00659763568742602335,0.00382654592445627606,0.16331225661030901453,0.89568863296866529922,0.90195806244567355847,0.89009599524869309484,0.29121703730841130842,-1.20486565496979047829,-1.07194907193125255063,-0.98288494591993835758,0.57098367377955905333,5.53014152353974886012,5.56839194870699660811,5.49497043961791220568,1.79417858703157451217,0.05599999999999999423,0.11799999999999999378,0.02400000000000000050,0.00800000000000000017,0.15399999999999999800,0.07007962735892135642,0.14800797043944405318,0.03012790987736249301,0.01004263662578749709,0.19316858645600021305,0.14999999999999999445,0.03200000000000000067,-0.00800000000000000017,0.00000000000000000000,0.15399999999999999800,0.18817851694259404849,0.04017054650314998837,-0.01004263662578749709,0.00000000000000000000,0.19316858645600021305,0.27898468910184126557,-0.00736152173142181482,0.84996836288140031890,0.00042871864896316903
X1009,X1009_22,148.58867313395737141946,81.12022676088314199205,34.00000000000000000000,0.00907153007447342868,0.00523796427942239268,63.55932203389831158802,118.00000000000000000000,0.93090034578140645749,3.00000000000000000000,0.86436741132007433031,27.00000000000000000000,0.84205453657588835714,19.00000000000000000000,0.83964206787494222173,14.00000000000000000000,0.78985186421246178501,10.00000000000000000000,1.87500000000000000000,0.62500000000000000000,0.62499999999999977796,0.62500000000000011102,1.25000000000000022204,1.71875000000000000000,1.87500000000000000000,0.93749999999999966693,0.93750000000000022204,2.34375000000000044409,0.31249999999999972244,0.46875000000000011102,0.31250000000000005551,0.31250000000000005551,0.78125000000000022204,16.00000000000000000000,0.00000000000000000000,0.62500000000000000000,0.93749999999999966693,1.25000000000000022204,2.18750000000000044409,1.25000000000000000000,0.46875000000000000000,3.43749999999999866773,4.06250000000000088818,0.78125000000000022204,0.00000000000000000000,0.00000000000000000000,0.00000000000000000000,0.00000000000000000000,0.00000000000000000000,9.00000000000000000000,1.25000000000000000000,0.31250000000000000000,0.31249999999999988898,1.25000000000000022204,1.87500000000000044409,0.31250000000000000000,0.15625000000000000000,0.15624999999999994449,0.15625000000000002776,1.87500000000000044409,5.78124999999999467093,0.62500000000000011102,0.93750000000000022204,0.00000000000000000000,0.00000000000000000000,5.00000000000000000000,1.56250000000000000000,0.62500000000000000000,0.62499999999999977796,0.62500000000000011102,1.56250000000000044409,0.00000000000000000000,0.00000000000000000000,0.00000000000000000000,0.00000000000000000000,0.62500000000000011102,0.93749999999999922284,5.93750000000000088818,1.09375000000000022204,0.62500000000000011102,0.78125000000000022204,2.00000000000000000000,1.25000000000000000000,0.62500000000000000000,0.62499999999999977796,1.25000000000000022204,1.25000000000000022204,0.00000000000000000000,0.00000000000000000000,0.00000000000000000000,0.00000000000000000000,0.93750000000000022204,6.71874999999999378275,1.87500000000000044409,0.15625000000000002776,0.15625000000000002776,0.15625000000000002776,14.00000000000000000000,-0.01198444056000699635,-0.03811908867616128904,-0.13425649959415855705,-0.22767881162584277521,-0.25906205800620452084,-0.20101129262033728962,-0.01592991612508749821,0.03694122397131324731,0.15402348414683622591,0.28703529195312038613,0.37049641358942198011,0.39644117660468858322,0.36191545328187757491,0.34199388435112948459,0.34393376733221936448,0.39859810077083379642,0.46390993032595934098,0.55141844054045896506,0.61188006591690879965,0.67554394543805784679,0.71100118998206196519,0.75789425273627708535,0.77984412121813462271,0.82449198098348563946,0.85065921408149935967,0.17825962675478856934,0.99466666666666669894,0.19733333333333336057,0.79733333333333333837,0.10399999999999999523,0.04292413590848428301,0.27200000000000001954,-0.02144223031244574251,0.42666666666666669405,0.60814005352399302939,0.00302924754783162609,0.22933333333333336124,0.56799999999999994937,1.55428378243877118869,0.20081845238095238915,0.79918154761904769412,0.10607638888888888673,0.27743055555555556912,0.43506944444444445308,0.23425099206349209169,0.56493055555555560243,0.19733333333333336057,0.20081845238095238915,0.78933333333333333126,0.79102182539682530660,0.98666666666666669183,0.99184027777777783452,3.99111111111111105387,0.12533333333333332438,0.12738095238095237249,0.44799999999999995381,0.45548115079365075752,0.57333333333333336146,0.58286210317460318553,3.57638888888888883955,0.07733333333333332338,0.07842261904761904656,0.11200000000000000233,0.11423611111111110772,0.18933333333333335347,0.19265873015873014040,1.45185185185185194889,0.96670114117300032230,5.06942263763877321026,10.66608762934600029837,8.17385846731807497179,6.03612377881177319949,18.83994609666407171744,0.15778672556028716656,0.84221327443971283344,0.56908828224832153087,0.43091171775167841362,0.24225878083964080822,0.75774121916035908075,0.76221420970824327323,0.39731883557836567000,0.00473082376117154712,-0.00521589741230391989,-0.00433567275223563798,-0.00389186454773075364,0.00211094329312759088,0.45786600716846287407,0.93055189953346484355,0.94209600818332239758,0.93535935321621543892,0.60895712681363267649,-1.10190078185303508285,-0.91650318060129920550,-0.82290299486755247305,0.44703802109239315632,2.03207862940994754553,2.05737613368862826135,2.04276937818942094793,1.32919904082491391328,0.04800000000000000794,0.11200000000000000233,0.02933333333333333279,0.00800000000000000017,0.16000000000000000333,0.04895833333333333287,0.11423611111111110772,0.02946428571428571022,0.00815972222222222272,0.16319444444444444753,0.14933333333333331794,0.03733333333333333642,-0.00800000000000000017,0.00000000000000000000,0.16000000000000000333,0.15186011904761906322,0.03762400793650793468,-0.00815972222222222272,0.00000000000000000000,0.16319444444444444753,0.19046737252342371693,-0.00459111115958660016,0.63750539361581692877,0.00040570890650085367
X1009,X1009_23,141.13352496396652213662,77.30906175180962236482,37.00000000000000000000,0.00552988304015949311,0.00602277742316923576,65.21739130434782794055,115.00000000000000000000,0.92873995765868078145,1.00000000000000000000,0.88225048484819657002,28.00000000000000000000,0.87047425738584394139,19.00000000000000000000,0.87452469831970680580,14.00000000000000000000,0.80808544323766606787,10.00000000000000000000,1.94444444444444441977,0.83333333333333337034,0.55555555555555535818,0.55555555555555569125,1.11111111111111138250,2.58064516129032250902,1.29032258064516125451,0.80645161290322553427,2.74193548387096841523,0.48387096774193560922,0.48387096774193510962,0.32258064516129036914,0.32258064516129036914,0.32258064516129036914,0.64516129032258073828,18.00000000000000000000,0.00000000000000000000,0.83333333333333337034,1.11111111111111071637,1.11111111111111138250,1.94444444444444486386,1.29032258064516125451,0.80645161290322575631,1.77419354838709608657,4.67741935483871085211,1.45161290322580671663,0.00000000000000000000,0.00000000000000000000,0.00000000000000000000,0.00000000000000000000,0.00000000000000000000,11.00000000000000000000,1.11111111111111116045,0.27777777777777779011,0.55555555555555535818,1.11111111111111138250,1.94444444444444486386,0.32258064516129031363,0.16129032258064515681,0.16129032258064510130,0.32258064516129036914,1.61290322580645217876,5.32258064516128559518,0.80645161290322608938,1.29032258064516147655,0.00000000000000000000,0.00000000000000000000,6.00000000000000000000,1.38888888888888883955,0.55555555555555558023,0.83333333333333303727,0.55555555555555569125,1.66666666666666696273,0.00000000000000000000,0.00000000000000000000,0.00000000000000000000,0.00000000000000000000,0.96774193548387121844,0.64516129032258007214,5.00000000000000088818,1.45161290322580671663,0.80645161290322608938,1.12903225806451645852,21.00000000000000000000,1.38888888888888883955,0.55555555555555558023,0.83333333333333303727,1.11111111111111138250,1.11111111111111138250,0.00000000000000000000,0.00000000000000000000,0.00000000000000000000,0.80645161290322608938,4.19354838709677490982,3.38709677419354537875,1.12903225806451645852,0.16129032258064518457,0.16129032258064518457,0.16129032258064518457,16.00000000000000000000,0.00407796747129485822,-0.02146299257487328110,-0.10822598994316628973,-0.19548408671076636378,-0.22915130522104115718,-0.16059039508295558374,-0.01004433250646519747,0.04120019621458973630,0.17023410848309228349,0.32933856919685000619,0.45948316159322605268,0.53213439148869801087,0.53102854555794865021,0.49746710022017542885,0.46144413295497077598,0.46918771434666578513,0.50949604895074784849,0.58142760644504032363,0.65474417107283466866,0.73194929980484924048,0.78929404732938734934,0.84369894284756363767,0.87526037613140550420,0.90653308468627757932,0.92211695230868362394,0.16825657439461152998,0.87999999999999989342,0.20200000000000001288,0.67799999999999993605,0.10999999999999998668,0.06130893343503035497,0.27600000000000002309,-0.03410800684117182291,0.44200000000000000400,0.33251405426347735439,0.00457606614705953485,0.23999999999999999112,0.43800000000000000044,2.65455134578943940937,0.23114990866998003094,0.76885009133001991355,0.12621098562083174488,0.31571347595684123855,0.50558799010237454041,0.27443808143239450947,0.49441200989762545959,0.11799999999999999378,0.13498689785905440552,0.40400000000000002576,0.46148906429208613744,0.52200000000000001954,0.59647596215114051521,3.42976190476190456735,0.08600000000000000699,0.09839515366806847463,0.12800000000000000266,0.14584229376407117917,0.21400000000000002354,0.24423744743213968156,1.48863636363636353543,0.05999999999999999778,0.06834717885816235516,0.07399999999999999634,0.08445006849751497680,0.13400000000000000799,0.15279724735567734584,1.23660714285714279370,1.36230512602974140890,7.18781959483978383219,15.14179849735175054093,8.63883423463290256450,8.55012472086952612926,23.78063273198465665814,0.15936129435341250815,0.84063870564658749185,0.63773540611368817466,0.36226459388631182534,0.26440511290345425355,0.73559488709654574645,0.78200677881632874033,0.39483355078422088802,0.00625457599619782395,-0.00789643516775268006,-0.00699009919873649910,-0.00633608570025070983,0.00323008342879912980,0.17085812025402549730,0.86885101750096471740,0.87704001772422102157,0.86706788671273105074,0.34121145926061818843,-1.26312147853974021672,-1.11938089632111759109,-1.01507385966770713459,0.51845829543474786227,5.13061687611583749913,5.18169675100084248243,5.12310669586974309908,2.01738490365724798536,0.05399999999999999939,0.11799999999999999378,0.02200000000000000219,0.00800000000000000017,0.15800000000000000155,0.06217543328660635193,0.13510039664840065021,0.02472614268722653913,0.00914793604774648272,0.18072657809778686078,0.14799999999999999267,0.02999999999999999889,-0.00800000000000000017,0.00000000000000000000,0.15800000000000000155,0.16897447538337367900,0.03387407873497302185,-0.00914793604774648272,0.00000000000000000000,0.18072657809778686078,0.35287498201433648015,-0.00713705243077094719,0.87133327744908428691,0.00027661516208585826
