patient,trial,SP,DP,ppg_fft_peaks_0,ppg_fft_peaks_heights_0,ppg_fft_peaks_neighbor_avgs_0,hr_0,p2p_0,ppg_max_neighbor_mean_0,ppg_min_0,vpg_max_neighbor_mean_0,vpg_min_0,apg_max_neighbor_mean_0,apg_min_0,ppg3_max_neighbor_mean_0,ppg3_min_0,ppg4_max_neighbor_mean_0,ppg4_min_0,ppg_histogram_up_0,ppg_histogram_up_1,ppg_histogram_up_2,ppg_histogram_up_3,ppg_histogram_up_4,ppg_histogram_down_0,ppg_histogram_down_1,ppg_histogram_down_2,ppg_histogram_down_3,ppg_histogram_down_4,ppg_histogram_down_5,ppg_histogram_down_6,ppg_histogram_down_7,ppg_histogram_down_8,ppg_histogram_down_9,ppg_max_0,vpg_histogram_up_0,vpg_histogram_up_1,vpg_histogram_up_2,vpg_histogram_up_3,vpg_histogram_up_4,vpg_histogram_down_0,vpg_histogram_down_1,vpg_histogram_down_2,vpg_histogram_down_3,vpg_histogram_down_4,vpg_histogram_down_5,vpg_histogram_down_6,vpg_histogram_down_7,vpg_histogram_down_8,vpg_histogram_down_9,vpg_max_0,apg_histogram_up_0,apg_histogram_up_1,apg_histogram_up_2,apg_histogram_up_3,apg_histogram_up_4,apg_histogram_down_0,apg_histogram_down_1,apg_histogram_down_2,apg_histogram_down_3,apg_histogram_down_4,apg_histogram_down_5,apg_histogram_down_6,apg_histogram_down_7,apg_histogram_down_8,apg_histogram_down_9,apg_max_0,ppg3_histogram_up_0,ppg3_histogram_up_1,ppg3_histogram_up_2,ppg3_histogram_up_3,ppg3_histogram_up_4,ppg3_histogram_down_0,ppg3_histogram_down_1,ppg3_histogram_down_2,ppg3_histogram_down_3,ppg3_histogram_down_4,ppg3_histogram_down_5,ppg3_histogram_down_6,ppg3_histogram_down_7,ppg3_histogram_down_8,ppg3_histogram_down_9,ppg3_max_0,ppg4_histogram_up_0,ppg4_histogram_up_1,ppg4_histogram_up_2,ppg4_histogram_up_3,ppg4_histogram_up_4,ppg4_histogram_down_0,ppg4_histogram_down_1,ppg4_histogram_down_2,ppg4_histogram_down_3,ppg4_histogram_down_4,ppg4_histogram_down_5,ppg4_histogram_down_6,ppg4_histogram_down_7,ppg4_histogram_down_8,ppg4_histogram_down_9,ppg4_max_0,usdc_0,usdc_1,usdc_2,usdc_3,usdc_4,usdc_5,dsdc_0,dsdc_1,dsdc_2,dsdc_3,dsdc_4,dsdc_5,dsdc_6,dsdc_7,dsdc_8,dsdc_9,dsdc_10,dsdc_11,dsdc_12,dsdc_13,dsdc_14,dsdc_15,dsdc_16,dsdc_17,dsdc_18,ppg_mean_cycles_match_peak_59,Tc,Ts,Td,Tsteepest,Steepest,TNegSteepest,NegSteepest,TdiaRise,DiaRise,SteepDiaRise,TSystoDiaRise,TdiaToEnd,Ratio,Ts_norm,Td_norm,Tsteepest_norm,TNegSteepest_norm,TdiaRise_norm,TSystoDiaRise_norm,TdiaToEnd_norm,SW25,SW25_norm,DW25,DW25_norm,SWaddDW25,SWaddDW25_norm,DWdivSW25,SW50,SW50_norm,DW50,DW50_norm,SWaddDW50,SWaddDW50_norm,DWdivSW50,SW75,SW75_norm,DW75,DW75_norm,SWaddDW75,SWaddDW75_norm,DWdivSW75,S1,S2,S3,S4,AUCsys,AUCdia,S1_norm,S2_norm,S3_norm,S4_norm,AUCsys_norm,AUCdia_norm,SQI_skew,SQI_kurtosis,apg_a,apg_b,apg_c,apg_d,apg_e,ppg_a,ppg_b,ppg_c,ppg_d,ppg_e,ratio_apg_b,ratio_apg_c,ratio_apg_d,ratio_apg_e,ratio_ppg_b,ratio_ppg_c,ratio_ppg_d,ratio_ppg_e,T_a,T_b,T_c,T_d,T_e,T_a_norm,T_b_norm,T_c_norm,T_d_norm,T_e_norm,T_peak_a,T_peak_b,T_peak_c,T_peak_d,T_peak_e,T_peak_a_norm,T_peak_b_norm,T_peak_c_norm,T_peak_d_norm,T_peak_e_norm,AI,bd,bcda,sdoo
X1001,X1001_1,102.00516675900361462936,59.09785181851342628079,32.00000000000000000000,0.01581921734298339516,0.01480008133390759567,40.54054054054054034850,185.00000000000000000000,0.83159508426307782170,79.00000000000000000000,0.64478503209821158570,24.00000000000000000000,0.66901014392261082264,19.00000000000000000000,0.63598818923077049536,16.00000000000000000000,0.52945535292999446053,14.00000000000000000000,1.50000000000000000000,1.00000000000000000000,0.49999999999999983347,0.50000000000000011102,1.50000000000000044409,1.14285714285714279370,4.71428571428571441260,0.99999999999999955591,1.14285714285714301575,0.28571428571428575394,0.28571428571428547638,0.42857142857142865866,0.28571428571428575394,0.28571428571428575394,0.42857142857142865866,10.00000000000000000000,0.00000000000000000000,1.00000000000000000000,0.99999999999999966693,1.00000000000000022204,2.00000000000000044409,1.00000000000000000000,1.00000000000000000000,5.14285714285714146143,2.85714285714285809448,0.00000000000000000000,0.00000000000000000000,0.00000000000000000000,0.00000000000000000000,0.00000000000000000000,0.00000000000000000000,5.00000000000000000000,1.50000000000000000000,0.50000000000000000000,0.00000000000000000000,1.00000000000000022204,2.00000000000000044409,0.00000000000000000000,0.14285714285714284921,0.14285714285714279370,0.14285714285714287697,5.85714285714285853857,3.14285714285714012917,0.57142857142857150787,0.00000000000000000000,0.00000000000000000000,0.00000000000000000000,3.00000000000000000000,1.50000000000000000000,0.50000000000000000000,0.49999999999999983347,1.00000000000000022204,1.50000000000000044409,0.00000000000000000000,0.00000000000000000000,0.00000000000000000000,0.00000000000000000000,0.14285714285714287697,2.71428571428571174806,5.85714285714285853857,0.57142857142857150787,0.71428571428571452362,0.00000000000000000000,1.00000000000000000000,1.00000000000000000000,1.00000000000000000000,0.99999999999999966693,0.50000000000000011102,1.50000000000000044409,0.00000000000000000000,0.00000000000000000000,0.00000000000000000000,0.28571428571428575394,1.28571428571428580945,7.42857142857142171977,0.85714285714285731732,0.14285714285714287697,0.00000000000000000000,0.00000000000000000000,8.00000000000000000000,0.01820519200135941804,-0.08206592524022060520,-0.21936200178740000721,-0.37895791880773699312,-0.49098522413163570022,-0.50341856881547175639,-0.03520440573151437103,0.07651319599155048667,0.20200513412478460218,0.34565333531568553926,0.50246760397870715575,0.54107066114771817933,0.53971540469593404232,0.59252097946853432564,0.65192022642052660508,0.70679883674058663345,0.71258138202429632813,0.70953916996871546630,0.68376437853762550567,0.67781331410406164828,0.66364474872649892312,0.68342496201053815064,0.69502169502206689877,0.73986684599305108101,0.77434495108146639275,0.09628965183604905331,1.44399999999999995026,0.16800000000000001044,1.27600000000000002309,0.08000000000000000167,0.06813923330397464451,0.23200000000000001177,-0.02319691156062880788,0.50000000000000000000,0.37347916029902789026,0.00013441040749601063,0.33200000000000001732,0.94399999999999995026,2.62075176221054428893,0.11641584766584767152,0.88358415233415232848,0.05543611793611794014,0.16076474201474200143,0.34640663390663395393,0.22999078624078622690,0.65359336609336615709,0.12800000000000000266,0.08869778869778870145,0.56000000000000005329,0.38777641277641278217,0.68799999999999994493,0.47647420147420149750,4.37500000000000000000,0.08799999999999999489,0.06097972972972973138,0.22400000000000000466,0.15508292383292382466,0.31199999999999999956,0.21606265356265358379,2.54545454545454541417,0.05600000000000000117,0.03880528255528255255,0.10799999999999999878,0.07476965601965601671,0.16400000000000000688,0.11357493857493858314,1.92857142857142860315,1.58113595787411664872,7.13608964021549851964,22.47814578596864620863,16.67273513854361510766,8.71722559808961605654,39.15088092451226486901,0.16980529142776007445,0.83019470857223987004,0.59114616139161613173,0.40885383860838392378,0.18417188423746105874,0.81582811576253899677,1.30546882891625481982,0.28185578311783043848,0.00887240864734076262,-0.00894576895115972714,0.00177250723564492674,-0.00159037415779900160,0.00229141088080017652,0.29124720961410865971,0.94484735281732323831,0.73189890027476633971,0.59460911754489298442,0.39656548509530570312,-1.00831890972514570670,0.19982824510259394879,-0.17927423828340047218,0.25822960623979290817,3.24430538998357542724,2.51317234157453572863,2.04172677962721405009,1.36174542614531279838,0.03200000000000000067,0.09600000000000000200,0.13600000000000000977,0.07599999999999999811,0.08799999999999999489,0.02217444717444717536,0.06652334152334152262,0.09424140049140049269,0.05259520884520885176,0.06097972972972973138,0.13600000000000000977,0.04000000000000000083,0.09600000000000000200,0.17199999999999998623,0.26000000000000000888,0.09424140049140049269,0.02771805896805897007,0.06652334152334152262,0.11911855036855037437,0.18009828009828010575,-1.28710252278413195270,-0.00172820167220880247,-1.02887291654433910004,0.12339319356745376277
X1001,X1001_4,102.39731182763205197261,58.92945448776462313845,36.00000000000000000000,0.01128994566278975105,0.00754363277316359108,41.43646408839779127220,181.00000000000000000000,0.82586974780653865658,11.00000000000000000000,0.65886338951267808817,24.00000000000000000000,0.67380396358235405962,19.00000000000000000000,0.63892047486249092803,16.00000000000000000000,0.53462514020262819070,14.00000000000000000000,2.00000000000000000000,0.50000000000000000000,0.49999999999999983347,1.00000000000000022204,1.00000000000000022204,3.71428571428571441260,2.57142857142857161890,1.57142857142857073072,0.28571428571428575394,0.28571428571428575394,0.28571428571428547638,0.42857142857142865866,0.14285714285714287697,0.28571428571428575394,0.42857142857142865866,10.00000000000000000000,0.00000000000000000000,1.00000000000000000000,0.99999999999999966693,1.00000000000000022204,2.00000000000000044409,0.71428571428571430157,1.28571428571428580945,4.57142857142856939845,3.42857142857142926928,0.00000000000000000000,0.00000000000000000000,0.00000000000000000000,0.00000000000000000000,0.00000000000000000000,0.00000000000000000000,6.00000000000000000000,1.50000000000000000000,0.00000000000000000000,0.49999999999999983347,1.50000000000000044409,1.50000000000000044409,0.14285714285714284921,0.14285714285714284921,0.14285714285714279370,0.00000000000000000000,5.28571428571428647558,3.57142857142856806618,0.71428571428571452362,0.00000000000000000000,0.00000000000000000000,0.00000000000000000000,3.00000000000000000000,1.50000000000000000000,0.50000000000000000000,0.49999999999999983347,1.00000000000000022204,1.50000000000000044409,0.00000000000000000000,0.00000000000000000000,0.00000000000000000000,0.00000000000000000000,0.00000000000000000000,1.14285714285714190552,7.42857142857143060155,0.71428571428571452362,0.42857142857142865866,0.28571428571428575394,1.00000000000000000000,1.50000000000000000000,0.50000000000000000000,0.49999999999999983347,1.00000000000000022204,1.50000000000000044409,0.00000000000000000000,0.00000000000000000000,0.00000000000000000000,0.14285714285714287697,1.14285714285714301575,7.71428571428570819535,0.85714285714285731732,0.14285714285714287697,0.00000000000000000000,0.00000000000000000000,8.00000000000000000000,0.03838340199356247984,-0.04334821503438519852,-0.19363619069881499168,-0.37721246976358213665,-0.49727252951612865850,-0.50421626494992244361,-0.02213995987552912215,0.12309279794819644183,0.27842261652196870214,0.43247715907392647594,0.58335336319052277787,0.62001910058760945077,0.61563600758347925002,0.66969877940651501014,0.73947374548175948128,0.80665901124322858529,0.82312749386470129842,0.82333751215340444940,0.79439414017973131177,0.78080367432450648035,0.75436403826729070410,0.75887664000761534400,0.75719386197268945260,0.78641587784936661798,0.79775381933468958451,0.08246038722573822977,1.46799999999999997158,0.17199999999999998623,1.29600000000000004086,0.08799999999999999489,0.07057922063673191526,0.23599999999999998757,-0.02512386727861476432,0.50400000000000000355,0.22036033006671454371,0.00074635370028253156,0.33200000000000001732,0.96399999999999996803,3.76140387165564282768,0.11719631719631720679,0.88280368280368282097,0.05994950994950995482,0.16079596079596081282,0.34334719334719332462,0.22615087615087614559,0.65665280665280667538,0.10399999999999999523,0.07084942084942084939,0.40000000000000002220,0.27245322245322245447,0.50400000000000000355,0.34330264330264331774,3.84615384615384581224,0.07599999999999999811,0.05179685179685179774,0.18399999999999999689,0.12530442530442531535,0.26000000000000000888,0.17710127710127709921,2.43333333333333357018,0.05200000000000000455,0.03544698544698544895,0.08399999999999999134,0.05720225720225720345,0.13600000000000000977,0.09264924264924265240,1.63095238095238093123,0.89655249433456418728,6.18706123531573837226,19.17916834647065371655,11.12100694296498559765,7.08361372965030255955,30.30017528943563931421,0.12733891466400451553,0.87266108533599551222,0.63300437986140178914,0.36699562013859832188,0.18937273101410098675,0.81062726898589909652,1.50460411029060270316,0.24731659303172007225,0.00918478218961837206,-0.00935361843441895324,0.00178087473709098720,-0.00107154720289087679,0.00207808699725171853,0.13669832198988213223,0.79180852405768198388,0.55305275605541193151,0.41369681046342243746,0.23680360008072448563,-1.01828043074261809231,0.19382887565397496910,-0.11661707107410890227,0.22619642926166111385,5.87835182411484957754,4.10106973106430583442,3.06037838511931825636,1.75396852897100385960,0.04000000000000000083,0.09199999999999999845,0.14000000000000001332,0.07199999999999999456,0.08799999999999999489,0.02724977724977725030,0.06269676269676269231,0.09535194535194535526,0.04904959904959904637,0.05990495990495990630,0.13200000000000000622,0.04000000000000000083,0.10000000000000000555,0.17199999999999998623,0.26000000000000000888,0.08994653994653994955,0.02724977724977725030,0.06810216810216809802,0.11715176715176715827,0.17705672705672706457,-1.32168866458414524523,-0.00178568932070168182,-1.09549223532248429791,0.13877404459509901091
X1001,X1001_6,108.17143271355564593250,61.08648724940409380224,32.00000000000000000000,0.01549666828108119815,0.01116721154694636647,40.76086956521739068648,184.00000000000000000000,0.82669678624069364847,11.00000000000000000000,0.64634582196728618264,23.00000000000000000000,0.67219876405945166997,19.00000000000000000000,0.63643377695022662621,16.00000000000000000000,0.53256672450377029460,14.00000000000000000000,2.00000000000000000000,0.50000000000000000000,0.49999999999999983347,0.50000000000000011102,1.50000000000000044409,4.28571428571428558740,1.71428571428571419055,0.85714285714285687323,1.14285714285714301575,0.28571428571428575394,0.28571428571428547638,0.42857142857142865866,0.28571428571428575394,0.28571428571428575394,0.42857142857142865866,10.00000000000000000000,0.00000000000000000000,1.00000000000000000000,0.99999999999999966693,1.00000000000000022204,2.00000000000000044409,0.85714285714285709528,2.00000000000000000000,5.14285714285714146143,2.00000000000000044409,0.00000000000000000000,0.00000000000000000000,0.00000000000000000000,0.00000000000000000000,0.00000000000000000000,0.00000000000000000000,5.00000000000000000000,1.50000000000000000000,0.00000000000000000000,0.49999999999999983347,1.00000000000000022204,2.00000000000000044409,0.14285714285714284921,0.14285714285714284921,0.00000000000000000000,0.14285714285714287697,5.71428571428571618895,3.28571428571428292287,0.57142857142857150787,0.00000000000000000000,0.00000000000000000000,0.00000000000000000000,3.00000000000000000000,1.50000000000000000000,1.00000000000000000000,0.00000000000000000000,1.00000000000000022204,1.50000000000000044409,0.00000000000000000000,0.00000000000000000000,0.00000000000000000000,0.00000000000000000000,0.00000000000000000000,1.28571428571428447718,7.14285714285714412597,0.85714285714285731732,0.42857142857142865866,0.28571428571428575394,1.00000000000000000000,1.50000000000000000000,0.50000000000000000000,0.49999999999999983347,1.00000000000000022204,1.50000000000000044409,0.00000000000000000000,0.00000000000000000000,0.00000000000000000000,0.28571428571428575394,1.14285714285714301575,7.42857142857142171977,1.00000000000000022204,0.14285714285714287697,0.00000000000000000000,0.00000000000000000000,8.00000000000000000000,0.02881558475613836545,-0.06681009719101856092,-0.22621360370977466880,-0.40705531530194166701,-0.51656898032188214298,-0.51460228124094720137,-0.02502407778874416594,0.09793286849152998963,0.21537936868452683958,0.35292216114880203826,0.50778413689201151726,0.54632693177304059162,0.54543411558768817304,0.60762837289640403426,0.69079183251516163011,0.77362235271909973733,0.80472485416987438178,0.81316444711054847172,0.78788276827014858128,0.77641243330164066982,0.75633405680973464502,0.77099632301024501047,0.77371633620038782198,0.81255846270707321466,0.83094984397692406297,0.08484318136544116706,1.41999999999999992895,0.17199999999999998623,1.24799999999999999822,0.08399999999999999134,0.07966932696078091181,0.22800000000000000822,-0.02560197760734095329,0.49599999999999999645,0.30396748460169609185,0.00046849487533640044,0.32400000000000001021,0.92399999999999993250,3.13333518213151940301,0.12133053755242090288,0.87866946244757904161,0.05929914855763121495,0.16080505782183251995,0.34963146524335997345,0.22830092769093912608,0.65036853475663991553,0.10399999999999999523,0.07330982335747870948,0.44800000000000000933,0.31544668954123777915,0.55200000000000004619,0.38875651289871648864,4.30769230769230837552,0.08000000000000000167,0.05639217181344516328,0.20400000000000001465,0.14353793366374378859,0.28400000000000003020,0.19993010547718897962,2.54999999999999982236,0.05600000000000000117,0.03947452026941161707,0.09199999999999999845,0.06476362943194816091,0.14799999999999999267,0.10423814970135977798,1.64285714285714279370,1.09337121576235296594,7.55879537548221591692,23.40626850575377204677,14.05289959379169140163,8.65216659124456910490,37.45916809954546522476,0.12627971394947321016,0.87372028605052676209,0.62525950564159060718,0.37474049435840944833,0.18785548189818779274,0.81214451810181220726,1.26036719540392683214,0.29764738336115964534,0.01025219010369486650,-0.01041782343163744073,0.00199593278916965211,-0.00166867698618122784,0.00255270371727164824,0.15685957119268018056,0.91673711859469275698,0.68342702583262360250,0.53956216801512191239,0.31884333061912617513,-1.01608799800317628481,0.19505563329184349985,-0.16284874161312942742,0.24845686196887112329,5.86685103332810342636,4.37888385541569391535,3.46961116869529995199,2.05100401477172189502,0.03600000000000000422,0.09600000000000000200,0.13200000000000000622,0.07599999999999999811,0.09600000000000000200,0.02546384546956411213,0.06767060617613419871,0.09295971533867072867,0.05365993137628669030,0.06749586986910662001,0.13600000000000000977,0.04000000000000000083,0.09199999999999999845,0.16800000000000001044,0.26400000000000001243,0.09586669208285678034,0.02819608590672258164,0.06476362943194816091,0.11842356080823485120,0.18591943067734145734,-1.29675175165076161932,-0.00188609054870570955,-1.04829488968189044051,0.10863814626205350877
X1001,X1001_8,104.74726717184816493500,60.45357262505086737292,40.00000000000000000000,0.01146953195908961137,0.00546021311224624984,43.85964912280702066028,171.00000000000000000000,0.83111552825432588598,10.00000000000000000000,0.68469934386757713707,24.00000000000000000000,0.69098949374593354733,19.00000000000000000000,0.70652436582687661026,16.00000000000000000000,0.56674353491244744419,14.00000000000000000000,2.00000000000000000000,0.50000000000000000000,0.99999999999999966693,0.50000000000000011102,1.00000000000000022204,2.57142857142857161890,3.28571428571428558740,1.42857142857142815906,0.71428571428571452362,0.28571428571428575394,0.28571428571428547638,0.42857142857142865866,0.28571428571428575394,0.14285714285714287697,0.57142857142857150787,10.00000000000000000000,0.00000000000000000000,1.00000000000000000000,0.99999999999999966693,1.00000000000000022204,2.00000000000000044409,0.85714285714285709528,1.14285714285714279370,5.14285714285714146143,2.71428571428571485669,0.14285714285714287697,0.00000000000000000000,0.00000000000000000000,0.00000000000000000000,0.00000000000000000000,0.00000000000000000000,6.00000000000000000000,1.00000000000000000000,0.50000000000000000000,0.49999999999999983347,1.00000000000000022204,2.00000000000000044409,0.14285714285714284921,0.14285714285714284921,0.14285714285714279370,0.14285714285714287697,3.14285714285714368188,5.57142857142856673391,0.71428571428571452362,0.00000000000000000000,0.00000000000000000000,0.00000000000000000000,3.00000000000000000000,1.50000000000000000000,0.50000000000000000000,0.99999999999999966693,0.50000000000000011102,1.50000000000000044409,0.00000000000000000000,0.00000000000000000000,0.00000000000000000000,0.00000000000000000000,0.00000000000000000000,1.14285714285714190552,7.42857142857143060155,0.71428571428571452362,0.42857142857142865866,0.28571428571428575394,1.00000000000000000000,1.50000000000000000000,0.50000000000000000000,0.49999999999999983347,1.50000000000000044409,1.00000000000000022204,0.00000000000000000000,0.00000000000000000000,0.00000000000000000000,0.28571428571428575394,1.42857142857142904724,7.57142857142856495756,0.42857142857142865866,0.14285714285714287697,0.14285714285714287697,0.00000000000000000000,9.00000000000000000000,0.03612699552823001037,-0.03892295280018737841,-0.17044112445102371778,-0.33868455579629336283,-0.46245941472761775692,-0.48757835547760630668,-0.04111454490506297188,0.07211162529066986182,0.23292887418869723248,0.37661138608152056051,0.53084752991703965108,0.57426571585417296451,0.54776114412691401245,0.58955277013735829517,0.66417188176043617798,0.74714346604976622501,0.78569965964818921922,0.80102649353394195231,0.78066042508362221142,0.77022116139634144716,0.74449723966005620923,0.74793285207496340572,0.74252225237500235622,0.77532648676040305524,0.78904288861234428420,0.08786590278705587453,1.38799999999999990052,0.17199999999999998623,1.21599999999999996980,0.08799999999999999489,0.07909228771351090037,0.23200000000000001177,-0.02794567222834382081,0.48799999999999998934,0.27180623344740778569,0.00277703341785109914,0.31600000000000000311,0.89999999999999991118,3.42042556582418377786,0.12407592407592407668,0.87592407592407584005,0.06355311355311354937,0.16754911754911755439,0.35186480186480184607,0.22778887778887779714,0.64813519813519815393,0.10000000000000000555,0.07207792207792207417,0.42399999999999998801,0.30677655677655679689,0.52400000000000002132,0.37885447885447887106,4.25320512820512774965,0.07599999999999999811,0.05474525474525474000,0.17599999999999998979,0.12682317682317681418,0.25200000000000000178,0.18156843156843155418,2.31666666666666642982,0.05200000000000000455,0.03741258741258741277,0.08799999999999999489,0.06355311355311354937,0.14000000000000001332,0.10096570096570095521,1.70238095238095232808,1.06726821621421352759,6.99050381651197838551,21.16663884162048958615,13.57430574914563692346,8.05777203272619146901,34.74094459076612650961,0.13346554211632996600,0.86653445788367000624,0.60935759955282886580,0.39064240044717113420,0.18820195930430222431,0.81179804069569772018,1.39062296645435123921,0.26634241143162529220,0.01021724535316374805,-0.01055174274933118328,0.00183678294951405974,-0.00117318834206789346,0.00280406686272804961,0.15297467806212894370,0.90049298377730790932,0.62889581947593009570,0.47382909833304265312,0.27964996105933315196,-1.03344590261689450728,0.17952503176655118522,-0.11397529688434547557,0.27568297718458717460,5.90137354107055944752,4.12367422152742868491,3.10851271969484699298,1.83212528766753712794,0.04000000000000000083,0.09600000000000000200,0.13200000000000000622,0.06800000000000000488,0.08399999999999999134,0.02888777888777888797,0.06933066933066933668,0.09518814518814519565,0.04896769896769896657,0.06052281052281052731,0.13200000000000000622,0.03600000000000000422,0.09600000000000000200,0.16400000000000000688,0.24799999999999999822,0.09518814518814519565,0.02585747585747585897,0.06933066933066933668,0.11829836829836830325,0.17882117882117881669,-1.37467861468368734990,-0.00195841953077835734,-1.09899563749910011978,0.13722348369479608898
X1001,X1001_10,112.02556885121377661108,64.86488089998384509727,30.00000000000000000000,0.01873565275584871889,0.02161456399627166222,42.13483146067416384994,178.00000000000000000000,0.81570011991045132671,11.00000000000000000000,0.64567851366002460001,23.00000000000000000000,0.69624562870066009079,19.00000000000000000000,0.64777597672152531505,16.00000000000000000000,0.51615154706722055078,14.00000000000000000000,2.00000000000000000000,0.50000000000000000000,0.49999999999999983347,0.50000000000000011102,1.50000000000000044409,1.57142857142857139685,3.85714285714285720630,0.85714285714285687323,1.71428571428571463464,0.28571428571428575394,0.42857142857142821457,0.42857142857142865866,0.28571428571428575394,0.14285714285714287697,0.42857142857142865866,10.00000000000000000000,0.00000000000000000000,1.00000000000000000000,0.99999999999999966693,1.00000000000000022204,2.00000000000000044409,0.71428571428571430157,1.85714285714285720630,5.28571428571428381105,2.14285714285714323779,0.00000000000000000000,0.00000000000000000000,0.00000000000000000000,0.00000000000000000000,0.00000000000000000000,0.00000000000000000000,5.00000000000000000000,1.50000000000000000000,0.00000000000000000000,0.49999999999999983347,1.00000000000000022204,2.00000000000000044409,0.14285714285714284921,0.00000000000000000000,0.14285714285714279370,0.14285714285714287697,2.00000000000000044409,6.71428571428570819535,0.85714285714285731732,0.00000000000000000000,0.00000000000000000000,0.00000000000000000000,3.00000000000000000000,1.50000000000000000000,1.00000000000000000000,0.00000000000000000000,1.00000000000000022204,1.50000000000000044409,0.00000000000000000000,0.00000000000000000000,0.00000000000000000000,0.00000000000000000000,0.00000000000000000000,1.14285714285714190552,7.57142857142857295116,0.57142857142857150787,0.28571428571428575394,0.42857142857142865866,1.00000000000000000000,1.50000000000000000000,0.50000000000000000000,0.99999999999999966693,0.50000000000000011102,1.50000000000000044409,0.00000000000000000000,0.00000000000000000000,0.00000000000000000000,0.28571428571428575394,1.71428571428571463464,7.42857142857142171977,0.42857142857142865866,0.00000000000000000000,0.14285714285714287697,0.00000000000000000000,8.00000000000000000000,0.03246875991283010299,-0.06807920990109482540,-0.21131074233181040833,-0.38593906509763187263,-0.51573686626513248754,-0.53617992596294772323,-0.02956267487243666864,0.10140942099006701460,0.23160010877282116715,0.34456885194332387279,0.45811395258973131028,0.46599043190422440031,0.45288855508412328987,0.51573557499541711202,0.58794731867162752792,0.65813117719418756657,0.68638857384852069998,0.70243129809043547418,0.68949560335747794859,0.69255912845842293457,0.68565081194956489785,0.71294352077385036992,0.73177315496960915198,0.78684575456320482445,0.80508800532732904820,0.14400953878834629740,1.40799999999999991829,0.16000000000000000333,1.24799999999999999822,0.08000000000000000167,0.05952771016191457654,0.21599999999999999756,-0.01966856682044593185,0.47599999999999997868,0.28979786606908669588,0.00191548346506473233,0.31600000000000000311,0.93199999999999993960,2.47797859624769900577,0.11363636363636363258,0.88636363636363635354,0.05681818181818181629,0.15340909090909091161,0.33806818181818182323,0.22443181818181817677,0.66193181818181812126,0.10000000000000000555,0.07102272727272726516,0.54000000000000003553,0.38352272727272729291,0.64000000000000001332,0.45454545454545453032,5.41346153846153832490,0.07199999999999999456,0.05113636363636363952,0.21599999999999999756,0.15340909090909091161,0.28799999999999997824,0.20454545454545455807,3.00000000000000000000,0.04800000000000000100,0.03409090909090908839,0.09199999999999999845,0.06534090909090908839,0.14000000000000001332,0.09943181818181817677,1.91666666666666651864,0.84686896371044373399,4.87830939503525673473,16.89266906665130463239,14.68900479943697945373,5.72517835874570124588,31.58167386608828408612,0.14702076435173375146,0.85297923564826616527,0.53816661770398288578,0.46183338229601711422,0.15392647583295981928,0.84607352416704018072,1.16963869688394961344,0.29389296959845145896,0.00782298787649060579,-0.00863798413189742487,0.00154465993909397303,-0.00114022604921668047,0.00199717219278941482,0.15868288051640710989,0.69871213384013575176,0.49666748992971876397,0.40633189579103734523,0.29399095268283581550,-1.10498637226843765546,0.19707874480379489190,-0.14535891242425053038,0.25633703924671830121,4.45649699692226874959,3.16754738301546234780,2.58746925545836781168,1.86478231008334627283,0.03600000000000000422,0.09199999999999999845,0.13200000000000000622,0.07200000000000000844,0.07599999999999999811,0.02556818181818181629,0.06534090909090908839,0.09375000000000000000,0.05113636363636363258,0.05397727272727272790,0.12399999999999999911,0.03200000000000000067,0.10000000000000000555,0.17199999999999998623,0.24799999999999999822,0.08806818181818182323,0.02272727272727272790,0.07102272727272726516,0.12215909090909091161,0.17613636363636364646,-1.41304324389470048473,-0.00128135104795930061,-1.15670620464798212801,0.11924455221219207313
X1001,X1001_12,101.74472970537360083654,59.06714378627131623034,31.00000000000000000000,0.01553929013152199369,0.01557092410456484971,43.35260115606936892618,173.00000000000000000000,0.82945483097792960248,10.00000000000000000000,0.67772735329225097800,24.00000000000000000000,0.68869137954160319914,19.00000000000000000000,0.70894879952592582129,16.00000000000000000000,0.55275793467411327153,14.00000000000000000000,2.00000000000000000000,0.50000000000000000000,0.49999999999999983347,0.50000000000000011102,1.50000000000000044409,5.28571428571428558740,0.71428571428571430157,1.85714285714285631812,0.28571428571428575394,0.28571428571428575394,0.42857142857142821457,0.28571428571428575394,0.14285714285714287697,0.28571428571428575394,0.42857142857142865866,10.00000000000000000000,0.00000000000000000000,1.00000000000000000000,0.99999999999999966693,1.00000000000000022204,2.00000000000000044409,0.85714285714285709528,1.28571428571428580945,4.28571428571428381105,3.57142857142857206298,0.00000000000000000000,0.00000000000000000000,0.00000000000000000000,0.00000000000000000000,0.00000000000000000000,0.00000000000000000000,6.00000000000000000000,1.50000000000000000000,0.00000000000000000000,0.49999999999999983347,1.00000000000000022204,2.00000000000000044409,0.14285714285714284921,0.14285714285714284921,0.14285714285714279370,0.00000000000000000000,2.71428571428571485669,5.99999999999999467093,0.85714285714285731732,0.00000000000000000000,0.00000000000000000000,0.00000000000000000000,3.00000000000000000000,1.50000000000000000000,1.00000000000000000000,0.00000000000000000000,1.00000000000000022204,1.50000000000000044409,0.00000000000000000000,0.00000000000000000000,0.00000000000000000000,0.00000000000000000000,0.00000000000000000000,1.14285714285714190552,7.28571428571428736376,0.71428571428571452362,0.57142857142857150787,0.28571428571428575394,1.00000000000000000000,1.50000000000000000000,0.50000000000000000000,0.49999999999999983347,1.50000000000000044409,1.00000000000000022204,0.00000000000000000000,0.00000000000000000000,0.00000000000000000000,0.14285714285714287697,1.28571428571428580945,7.57142857142856495756,0.85714285714285731732,0.00000000000000000000,0.14285714285714287697,0.00000000000000000000,9.00000000000000000000,0.03152478491422849860,-0.06252100417263763144,-0.21658467721474006229,-0.39466153983019452989,-0.50775072890756756117,-0.51113683650209729148,-0.02344057232768635007,0.12236768541006153022,0.28519915284168467773,0.43256479308522355343,0.58158612525901320911,0.60552198201209384010,0.57795191416342128754,0.62886116010572790103,0.70862864973351480380,0.79199138211608921534,0.82454062070716593880,0.83424381929445479145,0.81101047246064039697,0.79591345388603762512,0.76874210010345023214,0.77232197529731938523,0.77320786709577260520,0.80523856363044532536,0.81703906788137214967,0.07716326445062191008,1.38399999999999989697,0.16400000000000000688,1.21999999999999997335,0.08000000000000000167,0.08453553877982764031,0.22800000000000000822,-0.03112662235304775038,0.48399999999999998579,0.26800577474049741555,0.00350932628008182590,0.32000000000000000666,0.90000000000000002220,3.64523980371173816906,0.11848436246992782861,0.88151563753007211588,0.05780539962576851376,0.16476209569633787355,0.34967254744720666082,0.23118818497727877670,0.65032745255279333918,0.10000000000000000555,0.07224004276931302038,0.41599999999999998090,0.30062149157979145553,0.51600000000000001421,0.37286153434910451754,4.16987179487179471238,0.07599999999999999811,0.05489842288158246209,0.17599999999999998979,0.12713846565089548246,0.25200000000000000178,0.18203688853247795842,2.31666666666666642982,0.05200000000000000455,0.03755680299385191073,0.08000000000000000167,0.05780539962576851376,0.13200000000000000622,0.09536220261962041755,1.54761904761904767192,0.95747712773631521443,7.20577720938989507715,21.72564431033999454712,12.52081910140293885547,8.16325433712621162385,34.24646341174293695531,0.11786615176880216316,0.88213384823119778133,0.63413774110481724300,0.36586225889518275700,0.19226263312260177818,0.80773736687739816631,1.43569509346359236446,0.25714824608353992197,0.01094446323845073635,-0.01170831269835076460,0.00225375889643902871,-0.00142433438217434705,0.00314473345900764811,0.13983649035550130280,0.94261426631307332347,0.62930963971961739745,0.47035861923219973724,0.27247955934772905007,-1.07003390375961293657,0.20582749913697154232,-0.12970441517650158070,0.28732258480434136327,6.74393141827969166968,4.50481294424453615477,3.36806241247091486812,1.94845333008232124428,0.03200000000000000067,0.09600000000000000200,0.13600000000000000977,0.06800000000000000488,0.07999999999999998779,0.02312215985030740412,0.06936647955092220541,0.09826917936380646923,0.04911788291900560932,0.05777198609997327705,0.13200000000000000622,0.03600000000000000422,0.10000000000000000555,0.16800000000000001044,0.24799999999999999822,0.09536220261962041755,0.02599572306869820867,0.07227345629510825709,0.12139133921411388028,0.17916332531408712958,-1.43347957252442448350,-0.00208308492783176391,-1.14615698772008300921,0.14698744607399921724
X1001,X1001_20,96.51532903291689535763,56.09676113612223247173,36.00000000000000000000,0.01734195439980252759,0.00847275011769296239,43.60465116279069519578,172.00000000000000000000,0.82914247962913700807,10.00000000000000000000,0.68189299509497647289,24.00000000000000000000,0.68718485846393306815,19.00000000000000000000,0.70010277645973240102,16.00000000000000000000,0.55170318791409334036,14.00000000000000000000,2.00000000000000000000,0.50000000000000000000,0.49999999999999983347,0.50000000000000011102,1.50000000000000044409,5.14285714285714323779,0.85714285714285709528,1.85714285714285631812,0.42857142857142865866,0.28571428571428575394,0.28571428571428547638,0.28571428571428575394,0.14285714285714287697,0.28571428571428575394,0.42857142857142865866,10.00000000000000000000,0.00000000000000000000,1.00000000000000000000,0.99999999999999966693,1.00000000000000022204,2.00000000000000044409,0.85714285714285709528,1.14285714285714279370,3.99999999999999822364,4.00000000000000088818,0.00000000000000000000,0.00000000000000000000,0.00000000000000000000,0.00000000000000000000,0.00000000000000000000,0.00000000000000000000,5.00000000000000000000,1.50000000000000000000,0.00000000000000000000,0.49999999999999983347,1.00000000000000022204,2.00000000000000044409,0.14285714285714284921,0.14285714285714284921,0.14285714285714279370,0.14285714285714287697,2.85714285714285809448,5.71428571428570908353,0.85714285714285731732,0.00000000000000000000,0.00000000000000000000,0.00000000000000000000,3.00000000000000000000,1.50000000000000000000,1.00000000000000000000,0.00000000000000000000,1.00000000000000022204,1.50000000000000044409,0.00000000000000000000,0.00000000000000000000,0.00000000000000000000,0.00000000000000000000,0.00000000000000000000,1.28571428571428447718,7.28571428571428736376,0.71428571428571452362,0.42857142857142865866,0.28571428571428575394,1.00000000000000000000,1.50000000000000000000,0.50000000000000000000,0.49999999999999983347,1.50000000000000044409,1.00000000000000022204,0.00000000000000000000,0.00000000000000000000,0.00000000000000000000,0.00000000000000000000,1.71428571428571463464,7.57142857142856495756,0.57142857142857150787,0.00000000000000000000,0.14285714285714287697,0.00000000000000000000,8.00000000000000000000,0.03371123229079305006,-0.06165928182834871235,-0.21772531746580714440,-0.39493103460234424418,-0.50566597706351257280,-0.50785438513091019086,-0.02303513666588040409,0.12492187071892102423,0.30630790272204011515,0.46210580654502531051,0.60572845733348823494,0.62683554523007900539,0.58688347351059555468,0.62215653443603324835,0.69310338454386444251,0.77699795123794124230,0.81531903127176086343,0.83404400266496714345,0.81757681890564670724,0.80873292488881998175,0.78287904361101168238,0.77756012051834577647,0.76688356002577917625,0.79054138058351808294,0.79746301222705273659,0.07594882109723918862,1.41599999999999992539,0.16400000000000000688,1.25200000000000000178,0.08000000000000000167,0.07822890821768566094,0.23200000000000001177,-0.02951567972509150373,0.48399999999999998579,0.23649358668122680283,0.00425043118333193193,0.32000000000000000666,0.93199999999999993960,3.82316867264744342236,0.11585658134407056385,0.88414341865592938063,0.05656217045345604544,0.16403029431502252899,0.34191352698686605649,0.22605694564279549263,0.65808647301313394351,0.10000000000000000555,0.07060684498130571918,0.32800000000000001377,0.23017927331991180906,0.42799999999999999156,0.30078611830121748660,3.25641025641025638748,0.07599999999999999811,0.05363819384526891110,0.16399999999999997913,0.11566484517304188862,0.23999999999999999112,0.16930303901831078583,2.15555555555555589109,0.05200000000000000455,0.03666954270923209608,0.08000000000000000167,0.05656217045345604544,0.13200000000000000622,0.09323171316268813458,1.54761904761904767192,0.97733062062009623538,6.78000655885207770268,19.72626135695877991338,12.63466502912647726475,7.75733717947217460420,32.36092638608525362542,0.12672811696911187584,0.87327188303088809640,0.60943957261703274320,0.39056042738296725680,0.19319161150093450141,0.80680838849906555410,1.51910367118967193356,0.24046725135210986202,0.01022497887979960038,-0.01073094393049389694,0.00187492545136491717,-0.00082677645738765682,0.00277563417881170060,0.13910963859958136446,0.87723623424575591923,0.55999533590953654016,0.41048293495618159987,0.23301075617470523582,-1.05029649728554530519,0.18343198974968621950,-0.08048457432071046136,0.27235953440272991921,6.30676482424613205069,4.02764826003741838178,2.95236265682663301391,1.67538585945997642312,0.03200000000000000067,0.09600000000000000200,0.14000000000000001332,0.06400000000000000133,0.08399999999999999134,0.02262486818138241540,0.06787460454414726008,0.09907966637906240326,0.04505800019173616944,0.05910267471958585012,0.13200000000000000622,0.03600000000000000422,0.10400000000000000910,0.16800000000000001044,0.25200000000000000178,0.09323171316268813458,0.02535710861854088838,0.07372255776052152876,0.11878055795225769820,0.17788323267184352749,-1.42560344711725095479,-0.00187699571637875190,-1.15324391271452109109,0.16169221094949787210
X1001,X1001_22,98.01012488962362567690,56.91534733513979915642,31.00000000000000000000,0.00958161044688271568,0.01530163060347183336,43.85964912280702066028,171.00000000000000000000,0.83066916683122271614,10.00000000000000000000,0.68704742618120995257,24.00000000000000000000,0.68363481477820398080,19.00000000000000000000,0.70939665542407859267,16.00000000000000000000,0.57272474265535788795,14.00000000000000000000,2.00000000000000000000,0.50000000000000000000,0.49999999999999983347,1.00000000000000022204,1.00000000000000022204,4.00000000000000000000,2.00000000000000000000,1.85714285714285631812,0.42857142857142865866,0.28571428571428575394,0.28571428571428547638,0.28571428571428575394,0.14285714285714287697,0.28571428571428575394,0.42857142857142865866,10.00000000000000000000,0.00000000000000000000,1.00000000000000000000,0.99999999999999966693,1.00000000000000022204,2.00000000000000044409,0.85714285714285709528,1.00000000000000000000,4.14285714285714146143,4.00000000000000088818,0.00000000000000000000,0.00000000000000000000,0.00000000000000000000,0.00000000000000000000,0.00000000000000000000,0.00000000000000000000,6.00000000000000000000,1.00000000000000000000,0.50000000000000000000,0.49999999999999983347,1.00000000000000022204,2.00000000000000044409,0.14285714285714284921,0.14285714285714284921,0.14285714285714279370,0.14285714285714287697,2.57142857142857161890,5.99999999999999467093,0.85714285714285731732,0.00000000000000000000,0.00000000000000000000,0.00000000000000000000,3.00000000000000000000,1.50000000000000000000,0.50000000000000000000,0.99999999999999966693,0.50000000000000011102,1.50000000000000044409,0.00000000000000000000,0.00000000000000000000,0.00000000000000000000,0.00000000000000000000,0.00000000000000000000,0.85714285714285642914,7.57142857142857295116,0.71428571428571452362,0.57142857142857150787,0.28571428571428575394,1.00000000000000000000,1.50000000000000000000,0.50000000000000000000,0.49999999999999983347,1.50000000000000044409,1.00000000000000022204,0.00000000000000000000,0.00000000000000000000,0.00000000000000000000,0.00000000000000000000,1.57142857142857184094,7.14285714285713613236,1.14285714285714301575,0.00000000000000000000,0.14285714285714287697,0.00000000000000000000,9.00000000000000000000,0.03418025609923383556,-0.05185178371437973444,-0.19762528140644997077,-0.37118680271171738960,-0.48631649285165085006,-0.49647333013455308137,-0.02888931355528830819,0.11366661816107861971,0.30512698775877394874,0.46948497436490821411,0.61074769037189868826,0.62981096586534945914,0.58907297484016996059,0.62230927615517517282,0.69139851162437993004,0.77043024697984674454,0.80596191479362777610,0.82353589594851728251,0.80628353692506438133,0.79589474163650675287,0.76947199990932579894,0.76908384139139096547,0.75866086404301968926,0.78060084751351521692,0.78820163814538579672,0.06976664712857461037,1.41199999999999992184,0.16800000000000001044,1.24399999999999999467,0.08399999999999999134,0.07959985078152001514,0.23200000000000001177,-0.03123553809584966867,0.48399999999999998579,0.24732826458931095326,0.00462895281945371884,0.31600000000000000311,0.92799999999999993605,3.80183242022473777411,0.11948742746615086119,0.88051257253384918045,0.05955834945196647467,0.16500644745325596108,0.34368149580915541286,0.22419406834300453779,0.65631850419084458714,0.10399999999999999523,0.07396840747904577518,0.35999999999999998668,0.25938104448742749231,0.46400000000000002354,0.33334945196647325361,3.46153846153846167510,0.08000000000000000167,0.05689877498388136445,0.15999999999999997558,0.11305609284332687747,0.23999999999999999112,0.16995486782720825580,2.00000000000000000000,0.05600000000000000117,0.03982914248871695373,0.07599999999999999811,0.05386847195357833545,0.13200000000000000622,0.09369761444229529612,1.35714285714285720630,1.11989707736737242882,7.05032637073130175054,19.55791294571518079692,12.78251256044887362862,8.17022344809867462345,32.34042550616405264918,0.13721809957100539190,0.86278190042899460810,0.60594872667005472699,0.39405127332994538403,0.20290121931022853108,0.79709878068977135790,1.55799527565278417285,0.23471208977778093563,0.01042616567439563768,-0.01086438717964721690,0.00188020064394778252,-0.00067865221150398281,0.00281249314643439163,0.17129244005528015959,0.90459661547711767149,0.58527195397619080630,0.42035133869239366122,0.24355807838918674957,-1.04220421900066417820,0.18022815006753861722,-0.06468272274794593935,0.26993224816593636151,5.50230190251345785413,3.61004506650419187963,2.59804031174816962846,1.48739968384944365454,0.03600000000000000422,0.09199999999999999845,0.14000000000000001332,0.06400000000000000133,0.07999999999999998779,0.02578981302385557894,0.06524822695035460696,0.09975822050290135412,0.04514829142488717417,0.05652804642166343874,0.13200000000000000622,0.04000000000000000083,0.10000000000000000555,0.16400000000000000688,0.24399999999999999467,0.09369761444229529612,0.02844938749194068223,0.07130883301096066496,0.11645712443584783913,0.17298517085751127786,-1.42768189448619331472,-0.00208148085626122005,-1.15774964632025678668,0.17171285810698511121
X1001,X1001_24,104.41157053909756768917,58.21192003859830776946,36.00000000000000000000,0.01795150064400524020,0.01010875213419456034,40.10695187165775621452,187.00000000000000000000,0.78777193603828232771,11.00000000000000000000,0.63456204809732719152,24.00000000000000000000,0.64214479536104440704,19.00000000000000000000,0.69114576571417585260,17.00000000000000000000,0.51250790324241413121,15.00000000000000000000,2.22222222222222232091,0.55555555555555558023,0.55555555555555535818,0.55555555555555569125,1.11111111111111138250,4.22535211267605603780,1.97183098591549299528,1.54929577464788681418,0.42253521126760573701,0.28169014084507049134,0.42253521126760529292,0.28169014084507049134,0.14084507042253524567,0.28169014084507049134,0.42253521126760573701,9.00000000000000000000,0.00000000000000000000,1.11111111111111116045,1.11111111111111071637,1.11111111111111138250,1.66666666666666696273,0.84507042253521125197,1.26760563380281698898,4.92957746478873115592,2.95774647887324038109,0.00000000000000000000,0.00000000000000000000,0.00000000000000000000,0.00000000000000000000,0.00000000000000000000,0.00000000000000000000,5.00000000000000000000,1.11111111111111116045,0.55555555555555558023,0.00000000000000000000,1.11111111111111138250,2.22222222222222276500,0.14084507042253521791,0.14084507042253521791,0.14084507042253516240,0.00000000000000000000,1.97183098591549343936,6.76056338028168468668,0.84507042253521147401,0.00000000000000000000,0.00000000000000000000,0.00000000000000000000,3.00000000000000000000,1.11111111111111116045,1.11111111111111116045,0.55555555555555535818,0.55555555555555569125,1.66666666666666696273,0.00000000000000000000,0.00000000000000000000,0.00000000000000000000,0.00000000000000000000,0.00000000000000000000,0.98591549295774572048,7.74647887323943784565,0.70422535211267622834,0.28169014084507049134,0.28169014084507049134,1.00000000000000000000,1.11111111111111116045,1.11111111111111116045,0.55555555555555535818,1.11111111111111138250,1.11111111111111138250,0.00000000000000000000,0.00000000000000000000,0.00000000000000000000,0.14084507042253524567,1.69014084507042294803,7.60563380281689482842,0.42253521126760573701,0.00000000000000000000,0.14084507042253524567,0.00000000000000000000,8.00000000000000000000,0.04014339889719278215,-0.07251549156123214546,-0.21486766466111117957,-0.39278821152868204081,-0.53687755671341452768,-0.56723285622836017161,-0.03112830515366824674,0.11863280259472926137,0.28735948571383301831,0.42721878055535883467,0.57140101747101634810,0.60572614302192262503,0.59579659886042479755,0.64593069189787777340,0.71424712288170588703,0.78134213765001003793,0.79952841975848165657,0.80507736257329898244,0.78533418795601384055,0.77597250971061182412,0.75468510279663814089,0.76018526132160235687,0.76349012804130711451,0.79795985382511669393,0.81297636045700949481,0.08805019811388600792,1.47199999999999997513,0.16000000000000000333,1.31200000000000005507,0.08000000000000000167,0.08396327445136647638,0.22800000000000000822,-0.02927229341825160480,0.49599999999999999645,0.26101846131334444090,0.00138839583174110714,0.33600000000000002087,0.97599999999999997868,3.65805249001576626711,0.10872455461340738148,0.89127544538659253526,0.05436227730670369074,0.15497680739799685190,0.33704611930156291866,0.22832156468815550943,0.66295388069843708134,0.09600000000000000200,0.06523473276804443721,0.42800000000000004707,0.29114840310810408130,0.52400000000000002132,0.35638313587614856015,4.45833333333333392545,0.07199999999999999456,0.04892604957603332444,0.18800000000000000044,0.12779566874464501347,0.26000000000000000888,0.17672171832067834485,2.61111111111111071637,0.04800000000000000100,0.03261736638402221861,0.08399999999999999134,0.05712470824593021690,0.13200000000000000622,0.08974207462995242857,1.75000000000000000000,0.98834711932931629264,6.66944824076028464077,22.38252339590982842310,13.72789392703341526669,7.65779536008960093341,36.11041732294324901886,0.12906523154220383987,0.87093476845779616013,0.61989374532677565810,0.38010625467322428639,0.17490905810187193370,0.82509094189812803855,1.49301787569516664078,0.24451341488487493558,0.01117023103361908590,-0.01176184949418240810,0.00213715269408504271,-0.00101674297202056230,0.00223214314946526549,0.14823830200124754608,0.91691169890593371417,0.61893188588325731558,0.46190348030246780597,0.27100257764050250664,-1.05312250348814950840,0.19189589972953463581,-0.09141391723870626040,0.20006069520434771603,6.22484210142058991266,4.20319368515899238758,3.14587524464246470757,1.84342366822548187066,0.03200000000000000067,0.09199999999999999845,0.14000000000000001332,0.07599999999999999811,0.09600000000000000200,0.02174491092268147907,0.06256093597660059014,0.09508966821284012272,0.05159984636747717845,0.06532336691582710242,0.12800000000000000266,0.03600000000000000422,0.10399999999999999523,0.17999999999999999334,0.27600000000000002309,0.08697964369072591628,0.02441870771412532615,0.07067096049871479657,0.12227080686619198890,0.18759417378201909132,-1.35366518118332557208,-0.00190986136419197508,-1.15360448597897802259,0.14262486418056119497
X1001,X1001_26,100.72838097422871328490,58.81876250823034979476,32.00000000000000000000,0.01059748071038255079,0.01282429786912444615,45.45454545454545325356,165.00000000000000000000,0.84140949472363357753,10.00000000000000000000,0.70847395707631855011,24.00000000000000000000,0.68610216545990942993,19.00000000000000000000,0.69325430774222662755,16.00000000000000000000,0.55038771000308017722,14.00000000000000000000,1.81818181818181812126,0.90909090909090906063,0.45454545454545436378,0.45454545454545464134,1.36363636363636397952,4.78260869565217383581,0.86956521739130432369,2.02898550724637605214,0.57971014492753636382,0.28985507246376818191,0.28985507246376784884,0.28985507246376818191,0.14492753623188409096,0.28985507246376818191,0.43478260869565227287,11.00000000000000000000,0.00000000000000000000,0.90909090909090906063,0.90909090909090872756,0.90909090909090928267,2.27272727272727337322,1.01449275362318847016,1.01449275362318847016,3.62318840579710021998,3.62318840579710244043,0.72463768115942051029,0.00000000000000000000,0.00000000000000000000,0.00000000000000000000,0.00000000000000000000,0.00000000000000000000,6.00000000000000000000,1.36363636363636353543,0.45454545454545453032,0.00000000000000000000,1.36363636363636397952,1.81818181818181856535,0.14492753623188406320,0.14492753623188406320,0.14492753623188400769,0.14492753623188409096,2.75362318840579733958,5.65217391304347316350,1.01449275362318869220,0.00000000000000000000,0.00000000000000000000,0.00000000000000000000,3.00000000000000000000,1.36363636363636353543,0.45454545454545453032,0.90909090909090872756,0.45454545454545464134,1.81818181818181856535,0.00000000000000000000,0.00000000000000000000,0.00000000000000000000,0.00000000000000000000,0.00000000000000000000,1.01449275362318758198,7.24637681159420488086,0.86956521739130454574,0.57971014492753636382,0.28985507246376818191,1.00000000000000000000,1.36363636363636353543,0.45454545454545453032,0.90909090909090872756,0.90909090909090928267,1.36363636363636397952,0.00000000000000000000,0.00000000000000000000,0.00000000000000000000,0.14492753623188409096,1.59420289855072505603,7.24637681159419599908,0.86956521739130454574,0.14492753623188409096,0.00000000000000000000,0.00000000000000000000,9.00000000000000000000,0.01889621530248100298,-0.05414160099510122170,-0.19345000099223125245,-0.36188662057318543575,-0.46574068004130364518,-0.45931767813844204262,-0.01978816271941984117,0.12641912411789629767,0.31401544681985027463,0.47737131148560829619,0.61734776158021420489,0.62466475345294680821,0.55073474308587155868,0.56126671194926069930,0.63209988527783833590,0.72738236604452954914,0.78397898023709633453,0.82652933924510518793,0.82333477606505323099,0.82248128612960835770,0.79780378796155337895,0.79786817975440493811,0.78692340051304343618,0.81306891973920558669,0.82676537138913663849,0.06050489150016652440,1.28000000000000002665,0.16800000000000001044,1.11200000000000009948,0.08799999999999999489,0.08344197448938425743,0.23599999999999998757,-0.03410799351208565477,0.47999999999999998224,0.26319216817059942759,0.00834518406072184971,0.31199999999999999956,0.80000000000000004441,3.68682926327770399411,0.13137829912023460399,0.86862170087976542376,0.06881720430107526876,0.18465298142717495589,0.37536656891495601140,0.24398826979472137966,0.62463343108504398860,0.09600000000000000200,0.07507331378299120228,0.24799999999999999822,0.19393939393939393923,0.34399999999999997247,0.26901270772238516926,2.58333333333333348136,0.07199999999999999456,0.05630498533724340171,0.14799999999999999267,0.11564027370478983936,0.22000000000000000111,0.17194525904203322719,2.05555555555555535818,0.04800000000000000100,0.03753665689149560114,0.08000000000000000167,0.06256109481915933523,0.12800000000000000266,0.10009775171065493637,1.66666666666666674068,1.24540920466424553936,6.97082436793108595197,20.15860819971180006860,11.79290865690080991612,8.21623357259533193542,31.95151685661260998472,0.15131242752382681460,0.84868757247617310213,0.63133402299495466892,0.36866597700504533108,0.20462767303795281748,0.79537232696204718252,1.39241372430322085663,0.26242255759325427977,0.01091645958834871338,-0.01137637357098009172,0.00205302749366365056,-0.00059321780323162709,0.00344032938093787044,0.17474404497772627609,0.92301044417430389011,0.59430708946351118449,0.42319780464379430640,0.23690342920328211207,-1.04177332849910797563,0.18790590128346912335,-0.05466746700039253754,0.31552165138939841649,5.29050388763327106290,3.41303007702908134391,2.42930058312691787847,1.35707688600553710856,0.04000000000000000083,0.08799999999999999489,0.14000000000000001332,0.05999999999999999778,0.08399999999999999134,0.03128054740957966762,0.06881720430107526876,0.10957966764418378136,0.04682306940371456366,0.06559139784946235729,0.12800000000000000266,0.04000000000000000083,0.10000000000000000555,0.16000000000000000333,0.24399999999999999467,0.10009775171065493637,0.03128054740957966762,0.07829912023460411374,0.12512218963831867047,0.19071358748778102776,-1.49053341417158313753,-0.00240750273883204692,-1.17501176278218455451,0.17775128708507922926
X1001,X1001_28,101.78289755005044980862,59.04491808730581681175,33.00000000000000000000,0.01581873658390177059,0.01080837988511115615,41.43646408839779127220,181.00000000000000000000,0.82395941134105254999,10.00000000000000000000,0.66382997988786263122,24.00000000000000000000,0.67867146705271774731,19.00000000000000000000,0.64410715258476669565,16.00000000000000000000,0.52498129284606520617,14.00000000000000000000,2.00000000000000000000,0.50000000000000000000,0.49999999999999983347,1.00000000000000022204,1.00000000000000022204,3.57142857142857161890,2.42857142857142838110,1.42857142857142815906,0.85714285714285731732,0.28571428571428575394,0.28571428571428547638,0.28571428571428575394,0.14285714285714287697,0.28571428571428575394,0.42857142857142865866,10.00000000000000000000,0.00000000000000000000,1.00000000000000000000,0.99999999999999966693,1.00000000000000022204,2.00000000000000044409,0.85714285714285709528,1.28571428571428580945,3.99999999999999822364,3.85714285714285809448,0.00000000000000000000,0.00000000000000000000,0.00000000000000000000,0.00000000000000000000,0.00000000000000000000,0.00000000000000000000,6.00000000000000000000,1.00000000000000000000,0.50000000000000000000,0.49999999999999983347,1.50000000000000044409,1.50000000000000044409,0.14285714285714284921,0.14285714285714284921,0.14285714285714279370,0.14285714285714287697,3.14285714285714368188,5.42857142857142349612,0.85714285714285731732,0.00000000000000000000,0.00000000000000000000,0.00000000000000000000,3.00000000000000000000,1.50000000000000000000,0.50000000000000000000,0.49999999999999983347,1.00000000000000022204,1.50000000000000044409,0.00000000000000000000,0.00000000000000000000,0.00000000000000000000,0.00000000000000000000,0.00000000000000000000,0.99999999999999922284,7.42857142857143060155,0.71428571428571452362,0.57142857142857150787,0.28571428571428575394,1.00000000000000000000,1.50000000000000000000,0.00000000000000000000,0.99999999999999966693,1.50000000000000044409,1.00000000000000022204,0.00000000000000000000,0.00000000000000000000,0.00000000000000000000,0.14285714285714287697,1.28571428571428580945,7.71428571428570819535,0.71428571428571452362,0.00000000000000000000,0.14285714285714287697,0.00000000000000000000,9.00000000000000000000,0.03176819582390812829,-0.05043013551344395495,-0.19560197522503813827,-0.37524164490948108686,-0.49589483091756236810,-0.50579767207858949973,-0.02595784561113204103,0.12463055873993394984,0.30518720042339475551,0.46524273514483494019,0.58329042480412007787,0.57332947026807790092,0.54485547458153327227,0.60391189362052766221,0.68744978001976964066,0.76553658384412348603,0.79727420838392748514,0.81420876179520740301,0.79193606292924889622,0.77832376003162184741,0.75050141175034768004,0.75678733304235046297,0.75729147785724626463,0.79246302000612511840,0.81267813578844350086,0.07830153665976857802,1.39999999999999991118,0.17199999999999998623,1.22799999999999998046,0.08799999999999999489,0.07466774509557741468,0.23599999999999998757,-0.02852953909837924185,0.48399999999999998579,0.25147284708394390673,0.00424038251682704037,0.31199999999999999956,0.91599999999999992539,3.45387293986043264482,0.12309980712020660021,0.87690019287979337204,0.06293111902971657012,0.16886789368727320171,0.34621922913465624783,0.22311942201444964762,0.65378077086534380769,0.10000000000000000555,0.07161070973225669434,0.44000000000000000222,0.31485174409101313042,0.54000000000000003553,0.38646245382326982476,4.40384615384615329958,0.07599999999999999811,0.05444767726960671878,0.16400000000000000688,0.11737879629932328196,0.23999999999999999112,0.17182647356892999380,2.16111111111111142691,0.05200000000000000455,0.03728464480695675015,0.08000000000000000167,0.05721010820883323800,0.13200000000000000622,0.09449475301578999509,1.54761904761904767192,1.02188495001671042495,6.57595501723902131630,18.82364176020993795646,12.70490007152836753335,7.59783996725573196329,31.52854183173830548981,0.13471115517903101133,0.86528884482096901642,0.59764484419601160425,0.40235515580398845126,0.19441716345679485589,0.80558283654320517186,1.44487728719055530391,0.25156390602046835303,0.00971729016279549579,-0.01012244486215785333,0.00191364984070457878,-0.00078847703670345548,0.00260211654719240404,0.14581346144010887134,0.83312215476647133450,0.54749970499231359611,0.39538212401409800201,0.24881141508056620060,-1.04161998946573897129,0.19692573720526629355,-0.08075279149793869460,0.26744339215805867926,5.72543222982960564593,3.76454093588197657994,2.71747485767383700761,1.71187600348470958522,0.04000000000000000083,0.09199999999999999845,0.14000000000000001332,0.06800000000000000488,0.07599999999999999811,0.02860505410441661900,0.06588969891137336221,0.10001961489424301965,0.04872666644872339359,0.05444767726960671878,0.13200000000000000622,0.04000000000000000083,0.10000000000000000555,0.16800000000000001044,0.24399999999999999467,0.09449475301578999509,0.02860505410441661900,0.07141456078982641453,0.12014122723854980812,0.17458890450815650608,-1.42523632733112526338,-0.00188944481870729087,-1.15779293517306669514,0.16173109764556586887
X1001,X1001_30,99.02752911621071518766,55.99453884758598576354,34.00000000000000000000,0.01400394650694546453,0.01171578377974688383,41.89944134078211845917,179.00000000000000000000,0.81660645169501067109,11.00000000000000000000,0.66203113938241153758,24.00000000000000000000,0.64300759056123224511,19.00000000000000000000,0.64307515484173749520,16.00000000000000000000,0.53831446516570691241,14.00000000000000000000,2.00000000000000000000,0.50000000000000000000,0.49999999999999983347,0.50000000000000011102,1.50000000000000044409,5.42857142857142882519,0.85714285714285709528,1.71428571428571374646,0.28571428571428575394,0.28571428571428575394,0.42857142857142821457,0.14285714285714287697,0.28571428571428575394,0.14285714285714287697,0.42857142857142865866,10.00000000000000000000,0.00000000000000000000,1.00000000000000000000,0.99999999999999966693,1.00000000000000022204,2.00000000000000044409,0.71428571428571430157,1.28571428571428580945,3.85714285714285542994,4.14285714285714323779,0.00000000000000000000,0.00000000000000000000,0.00000000000000000000,0.00000000000000000000,0.00000000000000000000,0.00000000000000000000,5.00000000000000000000,1.50000000000000000000,0.50000000000000000000,0.00000000000000000000,1.00000000000000022204,2.00000000000000044409,0.14285714285714284921,0.14285714285714284921,0.00000000000000000000,0.14285714285714287697,5.00000000000000088818,3.85714285714285409767,0.71428571428571452362,0.00000000000000000000,0.00000000000000000000,0.00000000000000000000,3.00000000000000000000,1.50000000000000000000,0.50000000000000000000,0.49999999999999983347,1.00000000000000022204,1.50000000000000044409,0.00000000000000000000,0.00000000000000000000,0.00000000000000000000,0.00000000000000000000,0.00000000000000000000,0.99999999999999922284,7.42857142857143060155,0.85714285714285731732,0.57142857142857150787,0.14285714285714287697,1.00000000000000000000,1.50000000000000000000,0.50000000000000000000,0.49999999999999983347,1.00000000000000022204,1.50000000000000044409,0.00000000000000000000,0.00000000000000000000,0.00000000000000000000,0.14285714285714287697,1.42857142857142904724,7.85714285714285054496,0.42857142857142865866,0.14285714285714287697,0.00000000000000000000,0.00000000000000000000,8.00000000000000000000,0.03458072506774590577,-0.05803843546650794272,-0.21913726331337241016,-0.40544318567974124701,-0.51818451772806173317,-0.51418201957983789008,-0.01478376377491007372,0.15227592594639660639,0.32737975634414306914,0.48365535176755225510,0.63576263184822146002,0.66377150013256924765,0.63506302093545063947,0.67848395189081034395,0.75021315536588706330,0.82060498454293617776,0.84177750659884043039,0.84705124636495843227,0.82276970004829053096,0.80765702629766888965,0.77786296950008115836,0.77484496254407586591,0.76554758641587705714,0.79303257505016400142,0.80506656089106798380,0.06696761075672524877,1.45599999999999996092,0.16800000000000001044,1.28800000000000003375,0.08399999999999999134,0.08211499069767896897,0.23200000000000001177,-0.03137038372949135789,0.50000000000000000000,0.21288211983105367886,0.00361248085586127199,0.33199999999999996181,0.95599999999999996092,4.42657284617402346782,0.11541597463385172562,0.88458402536614832989,0.05766269062358447828,0.15938396497055715151,0.34336403442548690812,0.22794805979163521026,0.65663596557451309188,0.10000000000000000555,0.06874528159444361075,0.26000000000000000888,0.17857466404952437866,0.35999999999999998668,0.24731994564396800329,2.60576923076923083755,0.07599999999999999811,0.05225728521817907257,0.16400000000000000688,0.11262267854446625370,0.23999999999999999112,0.16487996376264532628,2.16666666666666696273,0.05200000000000000455,0.03576928884191454133,0.07599999999999999811,0.05216669183149630351,0.12800000000000000266,0.08793598067341085178,1.47619047619047627506,1.04839307034207429581,7.12765808341673512416,20.60903878555543755624,11.55533655782771340625,8.17605115375880941997,32.16437534338315629157,0.12791958698200461830,0.87208041301799543721,0.63999031112543325328,0.36000968887456663570,0.20288539247969017421,0.79711460752030982579,1.58818286623293003501,0.23112071274523132702,0.01079205900888496189,-0.01122616666378972727,0.00227339245047092353,-0.00113289072450345474,0.00265473281930542204,0.15174842290922169186,0.90545263765385397559,0.58887297410398753428,0.42199488148440017499,0.21562357091379130702,-1.04048715158610294296,0.21064373908081235331,-0.10470819001115844182,0.24666118518446361607,6.09509282913527172809,3.96078589995855212536,2.82858021830679451369,1.45442105792475029347,0.03600000000000000422,0.09199999999999999845,0.14000000000000001332,0.07199999999999999456,0.09199999999999999845,0.02468669787105541580,0.06324928280235542211,0.09613468216820172940,0.04946398912879360066,0.06315868941567265304,0.13200000000000000622,0.04000000000000000083,0.10000000000000000555,0.17199999999999998623,0.26400000000000001243,0.09072927676279632370,0.02747999396044088771,0.06865468820776082781,0.11811867733655442847,0.18127736675222710927,-1.39308388584022035950,-0.00198290972283843379,-1.14642270065575679894,0.16031050765881305065
X1001,X1001_34,101.41791991881380852192,59.60508197563314070067,32.00000000000000000000,0.01366688611667652223,0.01606697641477093652,45.18072289156626908380,166.00000000000000000000,0.84674602567094070515,10.00000000000000000000,0.69652053030176674930,24.00000000000000000000,0.68703542883947044118,19.00000000000000000000,0.68811800911630693900,16.00000000000000000000,0.53960306533356505732,14.00000000000000000000,1.81818181818181812126,0.45454545454545453032,0.90909090909090872756,0.45454545454545464134,1.36363636363636397952,3.33333333333333348136,2.46376811594202882461,2.17391304347825986554,0.28985507246376818191,0.28985507246376818191,0.28985507246376784884,0.28985507246376818191,0.28985507246376818191,0.14492753623188409096,0.43478260869565227287,11.00000000000000000000,0.00000000000000000000,0.90909090909090906063,0.90909090909090872756,0.90909090909090928267,2.27272727272727337322,0.86956521739130432369,1.15942028985507250560,4.20289855072463591767,3.47826086956521818294,0.28985507246376818191,0.00000000000000000000,0.00000000000000000000,0.00000000000000000000,0.00000000000000000000,0.00000000000000000000,6.00000000000000000000,1.36363636363636353543,0.45454545454545453032,0.45454545454545436378,0.45454545454545464134,2.27272727272727337322,0.14492753623188406320,0.00000000000000000000,0.14492753623188400769,0.14492753623188409096,1.44927536231884102058,7.10144927536231218568,1.01449275362318869220,0.00000000000000000000,0.00000000000000000000,0.00000000000000000000,3.00000000000000000000,0.90909090909090906063,0.90909090909090906063,0.90909090909090872756,0.90909090909090928267,1.36363636363636397952,0.00000000000000000000,0.00000000000000000000,0.00000000000000000000,0.00000000000000000000,0.00000000000000000000,1.15942028985507139538,6.95652173913043636588,1.01449275362318869220,0.57971014492753636382,0.28985507246376818191,1.00000000000000000000,1.36363636363636353543,0.45454545454545453032,0.45454545454545436378,1.36363636363636397952,1.36363636363636397952,0.00000000000000000000,0.00000000000000000000,0.00000000000000000000,0.43478260869565227287,1.30434782608695676309,7.39130434782608070066,0.72463768115942051029,0.14492753623188409096,0.00000000000000000000,0.00000000000000000000,9.00000000000000000000,0.03043240163537718618,-0.04661519701833770346,-0.18534188187242350843,-0.35417930781633399917,-0.46652065720114088698,-0.47333805398857170532,-0.02530947026995912508,0.11298805711705697807,0.29338769291510707893,0.45130723854981513732,0.60558780529097011591,0.63475293320653514151,0.58228229052365687579,0.60347324810148317287,0.67307327422589668942,0.75950413387919102348,0.80217589519609044935,0.82836218930171512387,0.81567934796064078817,0.80239874892669216244,0.76852327336636416799,0.76156530013225343101,0.75086801297355387774,0.77156317876248958765,0.78335686110331825827,0.07112340679560717749,1.36799999999999988276,0.16800000000000001044,1.20000000000000017764,0.08399999999999999134,0.08312952648616919737,0.23599999999999998757,-0.03237039076011094529,0.47999999999999998224,0.24589034812438037569,0.00586024220781443395,0.31199999999999999956,0.88800000000000001155,3.94637115303084939910,0.12331730769230769829,0.87668269230769224620,0.06184752747252747485,0.17342032967032966484,0.35195741758241760877,0.22864010989010988273,0.64804258241758239123,0.10000000000000000555,0.07321428571428570398,0.25600000000000000533,0.18715659340659340781,0.35599999999999998312,0.26037087912087913955,2.55769230769230748734,0.07599999999999999811,0.05559752747252746929,0.16000000000000000333,0.11706730769230769273,0.23599999999999998757,0.17266483516483516203,2.10555555555555562464,0.05200000000000000455,0.03798076923076923461,0.08000000000000000167,0.05872252747252747207,0.13200000000000000622,0.09670329670329670668,1.54761904761904767192,1.05170320798043070987,7.22567638578921123127,20.56382889742573638614,13.46136121736611279687,8.27737959376964127500,34.02519011479185451208,0.12797443541758124486,0.87202556458241875514,0.60630861318542905725,0.39369138681457083173,0.19617019560115722676,0.80382980439884277324,1.51338681061808921768,0.24332974274572033435,0.01069012037299829285,-0.01146055173608451216,0.00203983604616614356,-0.00113908818058822137,0.00342095257281291310,0.14850289087257428911,0.93880174385522130454,0.60920429784378793414,0.43859380344824938636,0.24037020402006420428,-1.07281801608614513199,0.19055973035229573087,-0.10575134306078612378,0.32119187180381153501,6.36086003788568365991,4.14147586177114579442,2.98216242386457430769,1.63578282012192377515,0.03600000000000000422,0.09600000000000000200,0.13600000000000000977,0.06400000000000000133,0.08000000000000000167,0.02661401098901099160,0.07046703296703296648,0.09982829670329670946,0.04660027472527472625,0.05872252747252747207,0.13200000000000000622,0.03600000000000000422,0.10000000000000000555,0.16400000000000000688,0.24399999999999999467,0.09670329670329670668,0.02623626373626373673,0.07359203296703296926,0.12019230769230769551,0.17891483516483516758,-1.47881827518146602429,-0.00218368164044343074,-1.15762640337765465581,0.16464398808036945221
X1001,X1001_36,108.65763186237873583195,61.36402373504198237697,33.00000000000000000000,0.01370365843523600920,0.01336135362014709976,40.76086956521739068648,184.00000000000000000000,0.81976885576170643866,11.00000000000000000000,0.63282023007389043290,24.00000000000000000000,0.62841947556812549625,19.00000000000000000000,0.63844857912338659478,16.00000000000000000000,0.53643498141938139590,14.00000000000000000000,2.00000000000000000000,0.50000000000000000000,0.49999999999999983347,0.50000000000000011102,1.50000000000000044409,1.85714285714285720630,4.00000000000000000000,0.71428571428571407953,1.42857142857142904724,0.28571428571428575394,0.28571428571428547638,0.42857142857142865866,0.28571428571428575394,0.28571428571428575394,0.42857142857142865866,10.00000000000000000000,0.00000000000000000000,1.00000000000000000000,0.99999999999999966693,1.00000000000000022204,2.00000000000000044409,0.71428571428571430157,2.14285714285714279370,6.57142857142856939845,0.57142857142857150787,0.00000000000000000000,0.00000000000000000000,0.00000000000000000000,0.00000000000000000000,0.00000000000000000000,0.00000000000000000000,5.00000000000000000000,1.50000000000000000000,0.50000000000000000000,0.00000000000000000000,1.00000000000000022204,2.00000000000000044409,0.14285714285714284921,0.00000000000000000000,0.14285714285714279370,0.14285714285714287697,5.57142857142857295116,3.57142857142856806618,0.42857142857142865866,0.00000000000000000000,0.00000000000000000000,0.00000000000000000000,3.00000000000000000000,1.50000000000000000000,0.50000000000000000000,0.49999999999999983347,1.00000000000000022204,1.50000000000000044409,0.00000000000000000000,0.00000000000000000000,0.00000000000000000000,0.00000000000000000000,0.00000000000000000000,1.14285714285714190552,7.42857142857143060155,0.71428571428571452362,0.57142857142857150787,0.14285714285714287697,1.00000000000000000000,1.50000000000000000000,0.50000000000000000000,0.49999999999999983347,1.00000000000000022204,1.50000000000000044409,0.00000000000000000000,0.00000000000000000000,0.00000000000000000000,0.14285714285714287697,1.57142857142857184094,7.57142857142856495756,0.57142857142857150787,0.14285714285714287697,0.00000000000000000000,0.00000000000000000000,8.00000000000000000000,0.03172967306401915794,-0.06290379305810354926,-0.22713874875290945843,-0.41440083610406808212,-0.52473258926645705014,-0.51751490618598916527,-0.02018452364257451032,0.10746099871013284344,0.22597214626879705279,0.35559383075641803895,0.49620508905372162634,0.52768107068373781843,0.52521799439465943760,0.58357473608671006637,0.66395538971406686812,0.74484283070145240746,0.77444983431112313088,0.78359614086123308141,0.76474205174036313792,0.75908059713435416249,0.74375367830855010354,0.75942982006664205841,0.76089402546016737805,0.79608777658136786748,0.80898721938765949524,0.10522165177707185069,1.41599999999999992539,0.16400000000000000688,1.25200000000000000178,0.08000000000000000167,0.08308587738887746044,0.22400000000000000466,-0.02576488960131073647,0.49199999999999999289,0.31636157641812256980,0.00041627144247230463,0.32800000000000001377,0.92399999999999993250,3.01752182605254271053,0.11604831751509922522,0.88395168248490074703,0.05656217045345604544,0.15837407726967692168,0.34795321637426901429,0.23190489885916976132,0.65204678362573098571,0.10000000000000000555,0.07079858115233439442,0.46399999999999996803,0.32786885245901642438,0.56400000000000005684,0.39866743361135076329,4.65064102564102554993,0.07599999999999999811,0.05382993001629757246,0.20800000000000001821,0.14686990700795704567,0.28400000000000003020,0.20069983702425461813,2.75000000000000000000,0.05200000000000000455,0.03686127888026076438,0.09199999999999999845,0.06495062793596012574,0.14399999999999998912,0.10181190681622087624,1.78571428571428558740,1.04638450990267051210,7.23413502330523083828,23.78467449190845428575,15.02365534217123688165,8.28051953320790090629,38.80832983407969294376,0.12714249926132917268,0.87285750073867074406,0.61349850043725218107,0.38650149956274781893,0.17604503200282303754,0.82395496799717693470,1.24908899379999249746,0.29647195635219647514,0.01100445031053179715,-0.01120294607451438607,0.00207553582058472852,-0.00164167147844729300,0.00239365041124206535,0.15180018502687156468,0.91604527337039520773,0.66553912117254743208,0.53372486174611966092,0.33557208418361722524,-1.01806422230450133171,0.18861814481901950646,-0.14913473181148934055,0.21730540737823034192,6.07090961452142963140,4.40842608458524498616,3.53212231631479767202,2.21703739748679407029,0.03200000000000000067,0.09199999999999999845,0.14000000000000001332,0.07199999999999999456,0.08799999999999999489,0.02262486818138241540,0.06514236410698878710,0.09888793020803374190,0.05090595340811043812,0.06221838749880164582,0.13200000000000000622,0.04000000000000000083,0.10000000000000000555,0.17199999999999998623,0.26000000000000000888,0.09342344933371679594,0.02828108522672802272,0.07060684498130571918,0.12151279838941615730,0.18373118588821779618,-1.27485304269026178403,-0.00193096924220468821,-1.05754763531203144211,0.10833006254613349040
X1001,X1001_37,107.13820549009955129804,61.47808540023248724538,39.00000000000000000000,0.01545967159699805117,0.00719310564656698310,45.18072289156626908380,166.00000000000000000000,0.84022488993486066367,10.00000000000000000000,0.69050218101613969335,24.00000000000000000000,0.68753210640437922851,19.00000000000000000000,0.69716510425282529617,16.00000000000000000000,0.57222652677646146380,14.00000000000000000000,2.00000000000000000000,0.50000000000000000000,0.49999999999999983347,1.00000000000000022204,1.00000000000000022204,2.85714285714285720630,2.71428571428571441260,1.85714285714285631812,0.42857142857142865866,0.28571428571428575394,0.42857142857142821457,0.28571428571428575394,0.28571428571428575394,0.28571428571428575394,0.57142857142857150787,10.00000000000000000000,0.00000000000000000000,1.00000000000000000000,0.99999999999999966693,1.00000000000000022204,2.00000000000000044409,0.71428571428571430157,1.42857142857142860315,5.42857142857142704884,2.42857142857142882519,0.00000000000000000000,0.00000000000000000000,0.00000000000000000000,0.00000000000000000000,0.00000000000000000000,0.00000000000000000000,6.00000000000000000000,1.00000000000000000000,0.50000000000000000000,0.49999999999999983347,1.00000000000000022204,2.00000000000000044409,0.14285714285714284921,0.14285714285714284921,0.14285714285714279370,0.14285714285714287697,3.14285714285714368188,5.57142857142856673391,0.71428571428571452362,0.00000000000000000000,0.00000000000000000000,0.00000000000000000000,3.00000000000000000000,1.50000000000000000000,0.50000000000000000000,0.99999999999999966693,0.50000000000000011102,1.50000000000000044409,0.00000000000000000000,0.00000000000000000000,0.00000000000000000000,0.00000000000000000000,0.00000000000000000000,1.14285714285714190552,7.28571428571428736376,0.85714285714285731732,0.42857142857142865866,0.28571428571428575394,1.00000000000000000000,1.50000000000000000000,1.00000000000000000000,0.00000000000000000000,1.50000000000000044409,1.00000000000000022204,0.00000000000000000000,0.00000000000000000000,0.00000000000000000000,0.28571428571428575394,2.28571428571428603149,6.85714285714285143314,0.42857142857142865866,0.00000000000000000000,0.14285714285714287697,0.00000000000000000000,9.00000000000000000000,0.02989178372950549931,-0.05317342592125046119,-0.19025962214994826538,-0.35544400569204886997,-0.46967455681500208664,-0.48527343551441592950,-0.03731303445707089689,0.06909902614883738081,0.21633507468538812346,0.32254037891857895159,0.46057378016390676523,0.53388446447291315611,0.51418747605946657497,0.53288947325539059996,0.58956599974270618159,0.67292794671504374548,0.72581350712033909645,0.76232131443330708453,0.75400179000664813156,0.75496061681812609567,0.73506995807440633772,0.74093940133530666881,0.73299568681431426231,0.75725655019056536954,0.77806907781147138792,0.08569990043683410608,1.33199999999999985079,0.16800000000000001044,1.16400000000000014566,0.08799999999999999489,0.07075855662393989998,0.23200000000000001177,-0.02441658020295789377,0.49199999999999999289,0.33773087005677260297,0.00210136160238907910,0.32400000000000001021,0.84000000000000007994,2.64033890121146708196,0.12631864161849709616,0.87368135838150284833,0.06616690751445086782,0.17444002890173410103,0.36958092485549132178,0.24326228323699422562,0.63041907514450867822,0.10799999999999999878,0.08108742774566474187,0.51600000000000001421,0.38809609826589597237,0.62399999999999999911,0.46918352601156065873,4.78571428571428558740,0.08000000000000000167,0.06015173410404624221,0.20400000000000001465,0.15326950867052024918,0.28400000000000003020,0.21342124277456647752,2.54999999999999982236,0.05200000000000000455,0.03898121387283236955,0.08799999999999999489,0.06616690751445086782,0.14000000000000001332,0.10514812138728324431,1.70238095238095232808,1.39406013783515403404,6.19314888816511022185,20.33965311649905771674,14.17715801067646275158,7.58720902600026469997,34.51681112717552224467,0.18241526864033330568,0.81758473135966669432,0.59340481577176562578,0.40659518422823437422,0.18083209452645621074,0.81916790547354378926,1.18562888464506399622,0.29955204780590294344,0.00931422099320100561,-0.00999778909637955016,-0.00253668474569013203,-0.00324080706869964152,0.00234489259163103703,0.22754016203769950044,0.86826806790769106570,0.75061312760265375132,0.68718967075398162958,0.48421009909995993414,-1.07384922299521012867,-0.24942431138189311013,-0.33639189398280039400,0.25316700233175576384,3.83437422911061531750,3.25904431611463607510,2.95799257480864685732,2.08881748025360147736,0.04000000000000000083,0.09199999999999999845,0.08400000000000000522,0.03600000000000000422,0.08799999999999999489,0.03007586705202312111,0.06929190751445085672,0.06468569364161849689,0.02789017341040462422,0.06569725433526012182,0.12800000000000000266,0.03600000000000000422,0.04800000000000000100,0.08400000000000000522,0.17199999999999998623,0.09624277456647398199,0.02695086705202312180,0.03773482658959537855,0.06562500000000000278,0.13132225433526012459,-0.74120001996227236063,-0.00471405840852374015,-0.48803301763051654127,0.07010398597923439556
X1001,X1001_40,98.84498633974082792975,56.87789210232331527095,31.00000000000000000000,0.01975600967133940566,0.01698816290611780341,41.89944134078211845917,179.00000000000000000000,0.80718303924767431656,11.00000000000000000000,0.66322826777371268747,24.00000000000000000000,0.64931732913977868726,19.00000000000000000000,0.65236498245855389921,17.00000000000000000000,0.52855981222932857388,15.00000000000000000000,2.00000000000000000000,0.50000000000000000000,0.49999999999999983347,0.50000000000000011102,1.50000000000000044409,5.42857142857142882519,0.85714285714285709528,1.71428571428571374646,0.28571428571428575394,0.42857142857142865866,0.28571428571428547638,0.14285714285714287697,0.28571428571428575394,0.14285714285714287697,0.42857142857142865866,10.00000000000000000000,0.00000000000000000000,1.00000000000000000000,0.99999999999999966693,1.00000000000000022204,2.00000000000000044409,0.71428571428571430157,1.14285714285714279370,3.57142857142857028663,4.57142857142857206298,0.00000000000000000000,0.00000000000000000000,0.00000000000000000000,0.00000000000000000000,0.00000000000000000000,0.00000000000000000000,6.00000000000000000000,1.50000000000000000000,0.00000000000000000000,0.49999999999999983347,1.50000000000000044409,1.50000000000000044409,0.14285714285714284921,0.14285714285714284921,0.00000000000000000000,0.14285714285714287697,2.28571428571428603149,6.42857142857142260794,0.85714285714285731732,0.00000000000000000000,0.00000000000000000000,0.00000000000000000000,3.00000000000000000000,1.50000000000000000000,0.50000000000000000000,0.49999999999999983347,1.00000000000000022204,1.50000000000000044409,0.00000000000000000000,0.00000000000000000000,0.00000000000000000000,0.00000000000000000000,0.00000000000000000000,0.99999999999999922284,7.57142857142857295116,0.57142857142857150787,0.57142857142857150787,0.28571428571428575394,1.00000000000000000000,1.50000000000000000000,0.00000000000000000000,0.99999999999999966693,1.50000000000000044409,1.00000000000000022204,0.00000000000000000000,0.00000000000000000000,0.00000000000000000000,0.14285714285714287697,1.28571428571428580945,7.85714285714285054496,0.57142857142857150787,0.00000000000000000000,0.14285714285714287697,0.00000000000000000000,8.00000000000000000000,0.03250578170570006531,-0.05324521178924761233,-0.20564497980818058354,-0.39114808452550881013,-0.51113229438131502214,-0.51452991749576648672,-0.01617701109225539238,0.15723921457759973408,0.34167388602709092282,0.50367401365372832522,0.63746159670548918630,0.63839701440139240418,0.61275046390290444087,0.67011299502543375528,0.74495803438964847132,0.81486271726215209199,0.83739532023235707658,0.84659500209609372945,0.82165867677582871131,0.80641836475356520886,0.77726758126048878239,0.77906921622833125163,0.77669417440278942788,0.80794100196023832527,0.82116424837340251663,0.06525543666060330816,1.41599999999999992539,0.16800000000000001044,1.24799999999999999822,0.08799999999999999489,0.08211942349564274601,0.23200000000000001177,-0.03238704952664894776,0.48799999999999998934,0.22689705216537825461,0.00416876806472553374,0.32000000000000000666,0.92799999999999993605,4.13614348573318846292,0.11865921787709496349,0.88134078212290500876,0.06215482841181164952,0.16386272944932162021,0.34474062250598558332,0.22608140462889064759,0.65525937749401430565,0.10000000000000000555,0.07059856344772547088,0.25600000000000000533,0.18087789305666401862,0.35599999999999998312,0.25147645650438943399,2.56730769230769251266,0.07199999999999999456,0.05085395051875499228,0.15599999999999999978,0.11027932960893854775,0.22799999999999998046,0.16113328012769354003,2.16666666666666696273,0.04800000000000000100,0.03390263367916999254,0.07599999999999999811,0.05371109337589784205,0.12399999999999999911,0.08761372705506784153,1.58333333333333348136,1.11378914914377524781,6.74835407799211406399,19.91208064508807495940,11.54735877899184615103,7.86214322713588931180,31.45943942407991755772,0.14155611741182722030,0.85844388258817283521,0.63253834275993925385,0.36746165724006074615,0.19998896163201979048,0.80001103836798015401,1.56623773423098233692,0.23308415085866182603,0.01079178173110985350,-0.01139526114206773633,0.00236086346658820334,-0.00112385405592302368,0.00290057656709072353,0.16113967411472190916,0.89465082686321317773,0.56396523399415898758,0.40256900460539524200,0.22505354667409732672,-1.05654524899998314424,0.21862804798814308715,-0.10348518621569557929,0.26898272446082877041,5.58311243005999191524,3.53024657844073219692,2.52334900405225504016,1.40362077866599399556,0.04000000000000000083,0.08799999999999999489,0.14399999999999998912,0.06800000000000000488,0.07999999999999998779,0.02825219473264165698,0.06215482841181164952,0.10170790103750998457,0.04806065442936951343,0.05656823623304070570,0.12800000000000000266,0.04000000000000000083,0.10399999999999999523,0.17199999999999998623,0.25200000000000000178,0.09040702314445331345,0.02825219473264165698,0.07345570630486832064,0.12151636073423782713,0.17808459696727851895,-1.44067083523325933925,-0.00212823217572126900,-1.17168811077243084640,0.17099028580482006356
X1001,X1001_42,97.58055302124685681520,56.05003743147916139833,31.00000000000000000000,0.02447607403693112527,0.01418800767558559515,42.37288135593220772535,177.00000000000000000000,0.82502468439789444776,10.00000000000000000000,0.67024397641068456100,24.00000000000000000000,0.68085619978010325504,19.00000000000000000000,0.64334849242104852340,16.00000000000000000000,0.54684675880872624099,14.00000000000000000000,2.00000000000000000000,0.50000000000000000000,0.49999999999999983347,1.00000000000000022204,1.00000000000000022204,5.42857142857142882519,0.85714285714285709528,1.71428571428571374646,0.28571428571428575394,0.28571428571428575394,0.28571428571428547638,0.28571428571428575394,0.14285714285714287697,0.28571428571428575394,0.42857142857142865866,10.00000000000000000000,0.00000000000000000000,1.00000000000000000000,0.99999999999999966693,1.00000000000000022204,2.00000000000000044409,0.85714285714285709528,1.14285714285714279370,3.99999999999999822364,4.00000000000000088818,0.00000000000000000000,0.00000000000000000000,0.00000000000000000000,0.00000000000000000000,0.00000000000000000000,0.00000000000000000000,6.00000000000000000000,1.00000000000000000000,0.50000000000000000000,0.49999999999999983347,1.50000000000000044409,1.50000000000000044409,0.14285714285714284921,0.14285714285714284921,0.14285714285714279370,0.14285714285714287697,3.42857142857142926928,5.28571428571428114651,0.71428571428571452362,0.00000000000000000000,0.00000000000000000000,0.00000000000000000000,3.00000000000000000000,1.50000000000000000000,0.50000000000000000000,0.49999999999999983347,1.00000000000000022204,1.50000000000000044409,0.00000000000000000000,0.00000000000000000000,0.00000000000000000000,0.00000000000000000000,0.00000000000000000000,0.99999999999999922284,7.57142857142857295116,0.57142857142857150787,0.57142857142857150787,0.28571428571428575394,1.00000000000000000000,1.50000000000000000000,0.00000000000000000000,0.99999999999999966693,1.50000000000000044409,1.00000000000000022204,0.00000000000000000000,0.00000000000000000000,0.00000000000000000000,0.00000000000000000000,1.57142857142857184094,7.85714285714285054496,0.42857142857142865866,0.00000000000000000000,0.14285714285714287697,0.00000000000000000000,8.00000000000000000000,0.03401545403710160009,-0.05123554845836288119,-0.20038849917511136756,-0.38177466349714705984,-0.50118220083618014726,-0.50874900654520160970,-0.02487233573487050015,0.12822286560348006290,0.31819626277265866676,0.48338789439368989864,0.63979131585306103780,0.67152976778504458455,0.63651843245597028442,0.67024822617674750802,0.73926045323868194714,0.81478909854790737555,0.84906861911713527036,0.86241138598244293512,0.83909171627146583727,0.82809091615680752163,0.79706340011515819377,0.79228751930076990462,0.78247872194384870959,0.80815432780619644859,0.81903820611152333697,0.05817302620768937532,1.41599999999999992539,0.16400000000000000688,1.25200000000000000178,0.08000000000000000167,0.08438432034152415495,0.23200000000000001177,-0.03228914184529863007,0.49199999999999999289,0.22103367319517880363,0.00376060908539400940,0.32800000000000001377,0.92400000000000004352,4.40859218588039603048,0.11580694586312563488,0.88419305413687432349,0.05649897854954034904,0.16384703779366699417,0.34742083758937691851,0.23161389172625126975,0.65257916241062308149,0.10000000000000000555,0.07060776302349336397,0.25600000000000000533,0.18076481103166497366,0.35599999999999998312,0.25137257405515833764,2.56089743589743612517,0.07599999999999999811,0.05365806945863126065,0.16400000000000000688,0.11580694586312563488,0.23999999999999999112,0.16946501532175689553,2.16111111111111142691,0.05200000000000000455,0.03670837589376915039,0.08000000000000000167,0.05649897854954034904,0.13200000000000000622,0.09320735444330949249,1.54761904761904767192,0.99898823245103562929,7.22865940249617366931,21.14664145253652094425,11.42742734742235199974,8.22764763494720874348,32.57406879995887294399,0.12225368463255012474,0.87774631536744984750,0.64895713210037797580,0.35104286789962196869,0.20149282888745617681,0.79850717111254387870,1.56519206335337734970,0.23611744750784516289,0.01104994765274591728,-0.01149019531825090645,0.00203148671427227923,-0.00082817510104199465,0.00284636914180610989,0.17398464745297914646,0.94250338098945374288,0.60513881354461696027,0.41750118950013320740,0.22005141749647577631,-1.03998532205101579251,0.18371964704745641361,-0.07461251124653930922,0.25810660574485189134,5.46465106155877577976,3.50524688817482710235,2.41043764951207251102,1.27643355117581847047,0.03600000000000000422,0.09199999999999999845,0.14000000000000001332,0.07199999999999999456,0.08799999999999999489,0.02540858018386108266,0.06498978549540346261,0.09885725229826353155,0.05084908069458630997,0.06211695607763023652,0.12800000000000000266,0.03600000000000000422,0.10399999999999999523,0.17599999999999998979,0.26400000000000001243,0.09039836567926455568,0.02540858018386108266,0.07344867211440245236,0.12429775280898876233,0.18641470888661898497,-1.40719906359678459395,-0.00200577811058826570,-1.14909245785193281364,0.16957667053314490202
X1001,X1001_43,97.51528658586745734738,56.18280433390915362679,30.00000000000000000000,0.03011839216720599635,0.02107022938909497434,43.85964912280702066028,171.00000000000000000000,0.82463020249428176101,10.00000000000000000000,0.68245813844564418016,24.00000000000000000000,0.69333516914066106729,19.00000000000000000000,0.65163327357310940613,16.00000000000000000000,0.55159687718525207689,14.00000000000000000000,2.00000000000000000000,0.50000000000000000000,0.99999999999999966693,0.50000000000000011102,1.00000000000000022204,5.14285714285714323779,0.85714285714285709528,1.85714285714285631812,0.28571428571428575394,0.42857142857142865866,0.28571428571428547638,0.28571428571428575394,0.14285714285714287697,0.14285714285714287697,0.57142857142857150787,10.00000000000000000000,0.00000000000000000000,1.00000000000000000000,0.99999999999999966693,1.00000000000000022204,2.00000000000000044409,0.85714285714285709528,1.14285714285714279370,3.42857142857142749293,4.57142857142857206298,0.00000000000000000000,0.00000000000000000000,0.00000000000000000000,0.00000000000000000000,0.00000000000000000000,0.00000000000000000000,6.00000000000000000000,1.00000000000000000000,0.50000000000000000000,0.49999999999999983347,1.50000000000000044409,1.50000000000000044409,0.14285714285714284921,0.14285714285714284921,0.14285714285714279370,0.14285714285714287697,3.28571428571428647558,5.28571428571428114651,0.85714285714285731732,0.00000000000000000000,0.00000000000000000000,0.00000000000000000000,3.00000000000000000000,1.50000000000000000000,0.50000000000000000000,0.99999999999999966693,0.50000000000000011102,1.50000000000000044409,0.00000000000000000000,0.00000000000000000000,0.00000000000000000000,0.00000000000000000000,0.00000000000000000000,1.14285714285714190552,7.28571428571428736376,0.85714285714285731732,0.57142857142857150787,0.14285714285714287697,1.00000000000000000000,1.50000000000000000000,0.50000000000000000000,0.49999999999999983347,1.50000000000000044409,1.00000000000000022204,0.00000000000000000000,0.00000000000000000000,0.00000000000000000000,0.28571428571428575394,1.42857142857142904724,7.42857142857142171977,0.71428571428571452362,0.00000000000000000000,0.14285714285714287697,0.00000000000000000000,9.00000000000000000000,0.02433245484234893008,-0.05144263998311195824,-0.18024489007578867183,-0.34563239791858041405,-0.46552497686386679066,-0.48608039757165716344,-0.03921880166271118906,0.08851127648813662818,0.27781832349677643146,0.43368745025097915624,0.58728872364616735435,0.63151923263876852399,0.58915806000303316825,0.60732066299072873239,0.66521700066232913873,0.74379046531402337461,0.78497504151312647025,0.80888187033771019596,0.79762571717749530809,0.79168908082047062535,0.76688320658814523867,0.76862803353967956710,0.76144296543511558184,0.79652302191887836003,0.81825718640373901192,0.05051171692710522410,1.39199999999999990408,0.16800000000000001044,1.22399999999999997691,0.08799999999999999489,0.06237218078141709698,0.23599999999999998757,-0.02508709062195796369,0.49199999999999999289,0.40565173403850729450,0.00367955136659436910,0.32400000000000001021,0.89999999999999991118,2.36335416512978113701,0.12094531974050046208,0.87905468025949951016,0.06335231034026214680,0.17003177545346220834,0.35406461008870648843,0.23311929034820599860,0.64593538991129351157,0.16800000000000001044,0.12094531974050046208,1.06000000000000005329,0.76588772673110017131,1.22799999999999998046,0.88683304647160066114,6.30952380952380931234,0.08799999999999999489,0.06335231034026214680,0.20800000000000001821,0.14947702899510129093,0.29599999999999998535,0.21282933933536343774,2.36363636363636375748,0.05600000000000000117,0.04031510658016682069,0.10000000000000000555,0.07185886402753871582,0.15599999999999999978,0.11217397060770553652,1.78571428571428558740,2.02082310819395738477,6.17719473374468819316,19.95488825886521766506,18.58180522741498919004,8.19801784193864513384,38.53669348628020685510,0.22361636683276370219,0.77638363316723624230,0.55895965978194872559,0.44104034021805127441,0.18415730602340815714,0.81584269397659192613,1.30197588343433556801,0.26208557248295005770,0.00810752083387022981,-0.00851406267454496435,0.00164309336556905938,-0.00066098336229897248,0.00215616336596491376,0.36013878052337894298,0.93166586848896437711,0.67676961439749616645,0.54636508553920060116,0.40393068844995094757,-1.05004798104665875158,0.20263335146334118808,-0.08160121222159874566,0.26590310382100090791,2.58727334969075117854,1.87918666987936555657,1.51699959404589845846,1.12168359245242621469,0.04000000000000000083,0.09199999999999999845,0.14000000000000001332,0.06400000000000000133,0.07999999999999998779,0.02879650470011915764,0.06636435853303322696,0.10065536872765787346,0.04607440752019065222,0.05732821395471997955,0.12800000000000000266,0.03600000000000000422,0.10399999999999999523,0.16800000000000001044,0.24799999999999999822,0.09214881504038130444,0.02578445650734807401,0.07487091222030980986,0.12094531974050046208,0.17827353369522044857,-1.43698322410940204641,-0.00162490013374196919,-1.17108012028840113850,0.17329457966990463591
X1001,X1001_47,101.41778750034885092646,57.76886979268476807192,31.00000000000000000000,0.01476268433550532999,0.01800021170150704550,41.20879120879121160215,182.00000000000000000000,0.81174371722078608737,79.00000000000000000000,0.65409073497195124869,24.00000000000000000000,0.64863949419103428262,19.00000000000000000000,0.66803882703355721429,17.00000000000000000000,0.52593970390264099812,15.00000000000000000000,1.50000000000000000000,1.00000000000000000000,0.49999999999999983347,0.50000000000000011102,1.50000000000000044409,1.00000000000000000000,4.57142857142857117481,0.85714285714285687323,1.57142857142857184094,0.28571428571428575394,0.42857142857142821457,0.42857142857142865866,0.14285714285714287697,0.28571428571428575394,0.42857142857142865866,10.00000000000000000000,0.00000000000000000000,1.00000000000000000000,0.99999999999999966693,1.00000000000000022204,2.00000000000000044409,0.71428571428571430157,1.28571428571428580945,2.85714285714285631812,5.14285714285714323779,0.00000000000000000000,0.00000000000000000000,0.00000000000000000000,0.00000000000000000000,0.00000000000000000000,0.00000000000000000000,5.00000000000000000000,1.50000000000000000000,0.00000000000000000000,0.49999999999999983347,1.50000000000000044409,1.50000000000000044409,0.14285714285714284921,0.00000000000000000000,0.14285714285714279370,0.14285714285714287697,4.57142857142857206298,4.14285714285713879690,0.85714285714285731732,0.00000000000000000000,0.00000000000000000000,0.00000000000000000000,3.00000000000000000000,1.50000000000000000000,1.00000000000000000000,0.00000000000000000000,1.00000000000000022204,1.50000000000000044409,0.00000000000000000000,0.00000000000000000000,0.00000000000000000000,0.00000000000000000000,0.42857142857142865866,3.14285714285714012917,5.14285714285714323779,0.57142857142857150787,0.42857142857142865866,0.28571428571428575394,1.00000000000000000000,1.50000000000000000000,0.50000000000000000000,0.49999999999999983347,1.00000000000000022204,1.50000000000000044409,0.00000000000000000000,0.00000000000000000000,0.00000000000000000000,0.14285714285714287697,1.57142857142857184094,7.42857142857142171977,0.71428571428571452362,0.14285714285714287697,0.00000000000000000000,0.00000000000000000000,8.00000000000000000000,0.01286482705658275466,-0.07371720668373654695,-0.19339102417059339523,-0.34619376899312187534,-0.46479894207772021186,-0.48730366602029018264,-0.03569713900110041416,0.08695910074655711919,0.23327440415201264323,0.36622147779769681497,0.50426036593281109432,0.53226599992440026821,0.50840728185469419298,0.54770873006643938652,0.60689797705047276999,0.66693104566672523070,0.67923884119075905730,0.67947351048914783611,0.65373210937819781208,0.64759640797473017049,0.63180014542302986857,0.65118819717327336427,0.66485350619030070263,0.71756795958336994090,0.76006552888700196213,0.09998113216985332619,1.42799999999999993605,0.16800000000000001044,1.26000000000000000888,0.08799999999999999489,0.06451994377228859046,0.23200000000000001177,-0.02405685039902899502,0.50000000000000000000,0.41644769823270666453,0.00201043366919476107,0.33200000000000001732,0.92799999999999993605,2.38834854075947422558,0.11769230769230769329,0.88230769230769223732,0.06164835164835165415,0.16252747252747251627,0.35021978021978017459,0.23252747252747252293,0.64978021978021982541,0.16800000000000001044,0.11769230769230769329,1.08800000000000007816,0.75956043956043961529,1.25600000000000000533,0.87725274725274726695,6.47619047619047627506,0.08799999999999999489,0.06164835164835165415,0.22800000000000000822,0.15967032967032968038,0.31600000000000000311,0.22131868131868132066,2.59090909090909082835,0.05600000000000000117,0.03923076923076923572,0.10399999999999999523,0.07285714285714285643,0.16000000000000000333,0.11208791208791207827,1.85714285714285720630,2.14442621671576061360,6.46816765288464878836,21.46984506021229321959,18.37628122259727803112,8.61259386960040984604,39.84612628280957125071,0.22624643083834580781,0.77375356916165416443,0.56918524695098327015,0.43081475304901678536,0.18167411707038377822,0.81832588292961627729,1.29149589703109857197,0.27006689616516699193,0.00840845623426106359,-0.00888226363015531817,0.00173181855036014243,-0.00107246762029089560,0.00207149587039784366,0.38178530953598138753,0.95983509969183922195,0.71706626049992838734,0.58766683688619614223,0.42474855566835600928,-1.05633975433811366784,0.20596148557420201897,-0.12760118248939694707,0.24650522251891471281,2.51430189247473379055,1.87858319772499626765,1.53966395903588404437,1.11278615583557205504,0.04000000000000000083,0.08799999999999999489,0.14399999999999998912,0.07199999999999999456,0.08799999999999999489,0.02802197802197801957,0.06164835164835165415,0.10087912087912087600,0.05043956043956043800,0.06153846153846154188,0.12800000000000000266,0.04000000000000000083,0.10399999999999999523,0.17599999999999998979,0.26400000000000001243,0.08967032967032967372,0.02802197802197801957,0.07285714285714285643,0.12329670329670330831,0.18483516483516482243,-1.38120527994183328602,-0.00166207969062010376,-1.13470005742291868422,0.15260334081235321646
X1001,X1001_49,99.01720032996675513459,57.39905812131946305499,32.00000000000000000000,0.01715757710460309726,0.01621143051306151925,41.89944134078211845917,179.00000000000000000000,0.79569749676820067386,11.00000000000000000000,0.64770009823693497353,24.00000000000000000000,0.64833141714332964689,19.00000000000000000000,0.68388333240997112306,17.00000000000000000000,0.51543476715659486409,15.00000000000000000000,2.00000000000000000000,0.50000000000000000000,0.49999999999999983347,0.50000000000000011102,1.50000000000000044409,1.42857142857142860315,4.42857142857142882519,1.99999999999999911182,0.28571428571428575394,0.42857142857142865866,0.28571428571428547638,0.28571428571428575394,0.28571428571428575394,0.14285714285714287697,0.42857142857142865866,10.00000000000000000000,0.00000000000000000000,1.00000000000000000000,0.99999999999999966693,1.00000000000000022204,2.00000000000000044409,0.71428571428571430157,1.28571428571428580945,3.85714285714285542994,4.14285714285714323779,0.00000000000000000000,0.00000000000000000000,0.00000000000000000000,0.00000000000000000000,0.00000000000000000000,0.00000000000000000000,5.00000000000000000000,1.50000000000000000000,0.50000000000000000000,0.00000000000000000000,1.00000000000000022204,2.00000000000000044409,0.14285714285714284921,0.00000000000000000000,0.14285714285714279370,0.14285714285714287697,4.14285714285714323779,4.71428571428570997170,0.71428571428571452362,0.00000000000000000000,0.00000000000000000000,0.00000000000000000000,3.00000000000000000000,1.50000000000000000000,0.50000000000000000000,0.49999999999999983347,1.00000000000000022204,1.50000000000000044409,0.00000000000000000000,0.00000000000000000000,0.00000000000000000000,0.00000000000000000000,0.00000000000000000000,1.28571428571428447718,7.28571428571428736376,0.85714285714285731732,0.42857142857142865866,0.14285714285714287697,1.00000000000000000000,1.50000000000000000000,0.50000000000000000000,0.49999999999999983347,1.00000000000000022204,1.50000000000000044409,0.00000000000000000000,0.00000000000000000000,0.00000000000000000000,0.00000000000000000000,1.57142857142857184094,7.99999999999999378275,0.28571428571428575394,0.14285714285714287697,0.00000000000000000000,0.00000000000000000000,8.00000000000000000000,0.03646990388759750734,-0.05851266084662298805,-0.20030227177704196251,-0.37779209082048770263,-0.50957934881493749391,-0.52960897176268972864,-0.02771865276613631399,0.11856154543464986206,0.29131548126024825462,0.42924851444680134360,0.56284258570454082093,0.59708169715570680314,0.57142256205478547670,0.60909720885407070412,0.67036971430210778866,0.73453935317240648395,0.76113743899872476906,0.77500743324456489169,0.75847693853068198777,0.75514507384749807173,0.72981015920073544212,0.73624893369635469043,0.73265573358118640801,0.77105107479783718816,0.79301152751994452572,0.09402610146170781169,1.46399999999999996803,0.16000000000000000333,1.30400000000000004796,0.08000000000000000167,0.06575640563932216853,0.22800000000000000822,-0.02349246914343172676,0.49199999999999999289,0.28413564457555900988,0.00249801219304149336,0.33200000000000001732,0.97199999999999997513,2.89524777047913062233,0.10934185761658649083,0.89065814238341345366,0.05467092880829324542,0.15587189675260657018,0.33616646252203263856,0.22682460490544620324,0.66383353747796736144,0.10799999999999999878,0.07374600424222507722,0.54000000000000003553,0.36837152331730049770,0.64799999999999990941,0.44211752755952560268,4.99175824175824178752,0.07599999999999999811,0.05187763271890777350,0.20000000000000001110,0.13643832342484987774,0.27600000000000002309,0.18831595614375767900,2.62777777777777776791,0.04800000000000000100,0.03280255728497595558,0.09199999999999999845,0.06281181848056642536,0.14000000000000001332,0.09561437576554238094,1.91666666666666651864,1.15744135718827045878,5.55511412986936825575,18.82270415908448057962,16.39168656644547894530,6.71255548705763871453,35.21439072552995952492,0.16946428406860630789,0.83053571593139374762,0.54089194157960929221,0.45910805842039065228,0.16148397358873731178,0.83851602641126266047,1.44700704992278628147,0.24352055597193447700,0.00885685339116525083,-0.00942160589614970956,0.00164952761975584172,-0.00072974365519562490,0.00193741755371532043,0.23284900448992079669,0.80349508540351266550,0.53651286959233579488,0.41801922194248286591,0.28641078696205007903,-1.06275979603742287694,0.18528749857862464312,-0.08175673063901352233,0.21761938074933229181,3.45021382954335908977,2.30393002982739192319,1.79510765787900927748,1.23004953930863392131,0.04000000000000000083,0.08799999999999999489,0.14399999999999998912,0.07200000000000000844,0.08399999999999999134,0.02733546440414662271,0.06013802168912257828,0.09840767185492785285,0.04908433662952230159,0.05734472559973709943,0.11999999999999999556,0.03200000000000000067,0.11200000000000000233,0.18399999999999999689,0.26800000000000001599,0.08200639321243988200,0.02186837152331730025,0.07653930033161054913,0.12562363696113285072,0.18296836256086995709,-1.38390994472636652546,-0.00138760524259497761,-1.16629056397703401160,0.15327543244918412357
X1001,X1001_51,105.39328684546714498538,59.53101130726048495490,32.00000000000000000000,0.02124115627193612701,0.01376841814433417931,43.10344827586206406522,174.00000000000000000000,0.81467112814430553414,11.00000000000000000000,0.66144693668732845726,24.00000000000000000000,0.65152534835039754846,19.00000000000000000000,0.64675330179415158049,17.00000000000000000000,0.53219022323687403819,15.00000000000000000000,2.00000000000000000000,0.50000000000000000000,0.49999999999999983347,0.50000000000000011102,1.50000000000000044409,3.14285714285714279370,2.71428571428571441260,1.85714285714285631812,0.28571428571428575394,0.42857142857142865866,0.28571428571428547638,0.42857142857142865866,0.14285714285714287697,0.28571428571428575394,0.42857142857142865866,10.00000000000000000000,0.00000000000000000000,1.00000000000000000000,0.99999999999999966693,1.00000000000000022204,2.00000000000000044409,0.85714285714285709528,1.28571428571428580945,4.57142857142856939845,3.28571428571428647558,0.00000000000000000000,0.00000000000000000000,0.00000000000000000000,0.00000000000000000000,0.00000000000000000000,0.00000000000000000000,5.00000000000000000000,1.50000000000000000000,0.00000000000000000000,0.49999999999999983347,1.00000000000000022204,2.00000000000000044409,0.14285714285714284921,0.14285714285714284921,0.00000000000000000000,0.14285714285714287697,3.14285714285714368188,5.71428571428570908353,0.71428571428571452362,0.00000000000000000000,0.00000000000000000000,0.00000000000000000000,3.00000000000000000000,1.50000000000000000000,1.00000000000000000000,0.00000000000000000000,1.00000000000000022204,1.50000000000000044409,0.00000000000000000000,0.00000000000000000000,0.00000000000000000000,0.00000000000000000000,0.00000000000000000000,1.28571428571428447718,7.28571428571428736376,0.71428571428571452362,0.42857142857142865866,0.28571428571428575394,1.00000000000000000000,1.50000000000000000000,0.50000000000000000000,0.49999999999999983347,1.00000000000000022204,1.50000000000000044409,0.00000000000000000000,0.00000000000000000000,0.00000000000000000000,0.00000000000000000000,1.71428571428571463464,7.57142857142856495756,0.57142857142857150787,0.00000000000000000000,0.14285714285714287697,0.00000000000000000000,8.00000000000000000000,0.03918694776312571515,-0.05148392525770004863,-0.20922707991758701662,-0.39151552742908457549,-0.50519006020219259234,-0.50620879702342236328,-0.01824952606736578858,0.12532567631760122007,0.27757160435798411413,0.40229997474798817603,0.55105097550670856243,0.61096951425740164687,0.58898584954862598373,0.62063197792878810333,0.68218541742636917835,0.75953053921836710671,0.79910145579846680874,0.81869333793892606899,0.80299512115755389274,0.79170097584169507599,0.76673482351617694430,0.76189116224336161931,0.74933072294237379474,0.76844823525499039718,0.77174165461764809848,0.08882229004575489806,1.43999999999999994671,0.16000000000000000333,1.28000000000000002665,0.08399999999999999134,0.08689049163053572111,0.22400000000000000466,-0.02997837733045316533,0.50000000000000000000,0.28232700282030220862,0.00198247880086335759,0.33999999999999996891,0.93999999999999994671,3.53555143083718981245,0.11119691119691119119,0.88880308880308878106,0.05845559845559845924,0.15567567567567569542,0.34756756756756757021,0.23637065637065637902,0.65243243243243242979,0.09600000000000000200,0.06671814671814671471,0.44400000000000000577,0.30849420849420849944,0.54000000000000003553,0.37521235521235518640,4.62500000000000000000,0.07199999999999999456,0.05003861003861004297,0.19200000000000000400,0.13343629343629342943,0.26400000000000001243,0.18347490347490347240,2.66666666666666651864,0.04800000000000000100,0.03335907335907335736,0.08799999999999999489,0.06115830115830116209,0.13600000000000000977,0.09451737451737451945,1.83333333333333325932,1.13223748209996299963,6.61822296171380219931,23.60243950725869055418,14.30346586724563806570,7.75046044381376475485,37.90590537450432861988,0.14681751911498569507,0.85318248088501436044,0.62464177439975610007,0.37535822560024378891,0.17000854484205518702,0.82999145515794481298,1.46898249781173229067,0.25093269069918738845,0.01159463901819520956,-0.01205253511814585732,0.00217970222384011869,-0.00128816919153090792,0.00251096859400817829,0.17879079091326605111,0.96847175432574961196,0.64728700376751469037,0.49602563982046793400,0.29233517789213259164,-1.03938057778298520439,0.18792117301832908516,-0.11113220024073391934,0.21666758025808208199,5.53277569670670832380,3.71126882808276636894,2.84284661404462513090,1.67820619261533465760,0.03600000000000000422,0.09199999999999999845,0.14000000000000001332,0.07199999999999999456,0.09199999999999999845,0.02509652509652509494,0.06386100386100386495,0.09737451737451738309,0.05003861003861004297,0.06401544401544401186,0.12399999999999999911,0.03200000000000000067,0.10799999999999999878,0.17999999999999999334,0.27200000000000001954,0.08610038610038610318,0.02223938223938223824,0.07513513513513514486,0.12517374517374518783,0.18918918918918919969,-1.33283713081866239669,-0.00188895792582174731,-1.11616955056058042572,0.13781120582957773202
X1001,X1001_53,103.06808770292595056617,57.98353882143705106955,32.00000000000000000000,0.01312457065900799955,0.01887599646205103190,41.20879120879121160215,182.00000000000000000000,0.81276684960704648208,79.00000000000000000000,0.65454287081815409888,24.00000000000000000000,0.64416316435038689647,19.00000000000000000000,0.66091114328799194233,17.00000000000000000000,0.52941531731665469884,15.00000000000000000000,1.66666666666666674068,0.55555555555555558023,1.11111111111111071637,0.55555555555555569125,1.11111111111111138250,0.98591549295774649764,4.36619718309859194960,0.84507042253521091890,1.69014084507042294803,0.42253521126760573701,0.28169014084507015827,0.42253521126760573701,0.28169014084507049134,0.14084507042253524567,0.56338028169014098268,9.00000000000000000000,0.00000000000000000000,1.11111111111111116045,0.55555555555555535818,1.11111111111111138250,2.22222222222222276500,0.70422535211267600630,1.12676056338028174331,2.95774647887323860473,5.07042253521126884408,0.14084507042253524567,0.00000000000000000000,0.00000000000000000000,0.00000000000000000000,0.00000000000000000000,0.00000000000000000000,5.00000000000000000000,1.11111111111111116045,0.55555555555555558023,0.00000000000000000000,1.11111111111111138250,2.22222222222222276500,0.14084507042253521791,0.14084507042253521791,0.14084507042253516240,0.14084507042253524567,4.36619718309859194960,4.22535211267605248509,0.84507042253521147401,0.00000000000000000000,0.00000000000000000000,0.00000000000000000000,3.00000000000000000000,1.66666666666666674068,0.55555555555555558023,0.55555555555555535818,0.55555555555555569125,1.66666666666666696273,0.00000000000000000000,0.00000000000000000000,0.00000000000000000000,0.00000000000000000000,0.00000000000000000000,3.52112676056337692287,5.07042253521126884408,0.70422535211267622834,0.56338028169014098268,0.14084507042253524567,1.00000000000000000000,1.11111111111111116045,1.11111111111111116045,1.11111111111111071637,0.55555555555555569125,1.11111111111111138250,0.00000000000000000000,0.00000000000000000000,0.00000000000000000000,0.28169014084507049134,1.40845070422535245669,7.18309859154928975755,0.84507042253521147401,0.14084507042253524567,0.00000000000000000000,0.14084507042253524567,8.00000000000000000000,0.01959725238949752008,-0.08299791736800612996,-0.19882785845648576206,-0.34664741746266108935,-0.47690808815180135705,-0.51505505927018435663,-0.04635180624906976021,0.07049104975161629705,0.22937439790283620233,0.35336820922877287821,0.48080840994212215023,0.50222342122426555378,0.47170384855961494663,0.51379161155692487650,0.58253134151731500445,0.65364432068356104200,0.67991533054723096718,0.68750098513002244616,0.66714858574142321679,0.66130822307545500394,0.64011685695268782936,0.65485426601730722940,0.66680928247588755475,0.71846985135296859148,0.76115587957112329498,0.10215744360007110447,1.42399999999999993250,0.16400000000000000688,1.26000000000000000888,0.08000000000000000167,0.06799332162901894350,0.23200000000000001177,-0.02568924034931951983,0.49199999999999999289,0.42333424728739743603,0.00285294541877093022,0.32800000000000001377,0.93199999999999993960,2.35795258844455801750,0.11518051738842036147,0.88481948261157961078,0.05622413847563094424,0.16305000157932975080,0.34554155216526105665,0.23036103477684072294,0.65445844783473883233,0.13200000000000000622,0.09269086199816797822,0.93199999999999993960,0.64940459269086203697,1.06400000000000005684,0.74209545468902993193,7.00183823529411775155,0.09199999999999999845,0.06457879276035249916,0.22400000000000000466,0.15726965475852050513,0.31600000000000000311,0.22184844751887300429,2.43560606060606055223,0.05999999999999999778,0.04208913737010012979,0.09600000000000000200,0.06746896617075712199,0.15599999999999999978,0.10955810354085726566,1.60714285714285720630,1.78833009011845178726,6.80425487419215713203,21.59330822632577451259,18.69306033279937295788,8.59258496431061047360,40.28636855912515102318,0.19301450095679817398,0.80698549904320171500,0.55957134166625632776,0.44042865833374361673,0.18098141822149027558,0.81901858177850972442,1.26063185376794661963,0.27335970105871343350,0.00899117141191665969,-0.00934554036018514500,0.00190447447063590847,-0.00090117948328494180,0.00211457921437219198,0.33639236102301195430,0.97582169782797878455,0.71045629807557464375,0.57926195489614340506,0.42291813906736835937,-1.03943276213453517087,0.21189860732684714928,-0.10054326239619448824,0.23496025171820761335,2.90084669160673325194,2.11193390941885628109,1.72190297216227183874,1.25720141399713503105,0.03200000000000000067,0.09600000000000000200,0.13600000000000000977,0.07199999999999999456,0.09199999999999999845,0.02248965539025237631,0.06746896617075712199,0.09558103540857260105,0.05060172462806784843,0.06442085978710634930,0.13200000000000000622,0.03600000000000000422,0.10000000000000000555,0.17199999999999998623,0.26400000000000001243,0.09269086199816797822,0.02522189582741084582,0.07035913958116175870,0.12096086420922960714,0.18538172399633595644,-1.38574835878339541750,-0.00152197966578710743,-1.15078810706518774865,0.15387306622748156415
