patient,trial,SP,DP,ppg_fft_peaks_0,ppg_fft_peaks_heights_0,ppg_fft_peaks_neighbor_avgs_0,hr_0,p2p_0,ppg_max_neighbor_mean_0,ppg_min_0,vpg_max_neighbor_mean_0,vpg_min_0,apg_max_neighbor_mean_0,apg_min_0,ppg3_max_neighbor_mean_0,ppg3_min_0,ppg4_max_neighbor_mean_0,ppg4_min_0,ppg_histogram_up_0,ppg_histogram_up_1,ppg_histogram_up_2,ppg_histogram_up_3,ppg_histogram_up_4,ppg_histogram_down_0,ppg_histogram_down_1,ppg_histogram_down_2,ppg_histogram_down_3,ppg_histogram_down_4,ppg_histogram_down_5,ppg_histogram_down_6,ppg_histogram_down_7,ppg_histogram_down_8,ppg_histogram_down_9,ppg_max_0,vpg_histogram_up_0,vpg_histogram_up_1,vpg_histogram_up_2,vpg_histogram_up_3,vpg_histogram_up_4,vpg_histogram_down_0,vpg_histogram_down_1,vpg_histogram_down_2,vpg_histogram_down_3,vpg_histogram_down_4,vpg_histogram_down_5,vpg_histogram_down_6,vpg_histogram_down_7,vpg_histogram_down_8,vpg_histogram_down_9,vpg_max_0,apg_histogram_up_0,apg_histogram_up_1,apg_histogram_up_2,apg_histogram_up_3,apg_histogram_up_4,apg_histogram_down_0,apg_histogram_down_1,apg_histogram_down_2,apg_histogram_down_3,apg_histogram_down_4,apg_histogram_down_5,apg_histogram_down_6,apg_histogram_down_7,apg_histogram_down_8,apg_histogram_down_9,apg_max_0,ppg3_histogram_up_0,ppg3_histogram_up_1,ppg3_histogram_up_2,ppg3_histogram_up_3,ppg3_histogram_up_4,ppg3_histogram_down_0,ppg3_histogram_down_1,ppg3_histogram_down_2,ppg3_histogram_down_3,ppg3_histogram_down_4,ppg3_histogram_down_5,ppg3_histogram_down_6,ppg3_histogram_down_7,ppg3_histogram_down_8,ppg3_histogram_down_9,ppg3_max_0,ppg4_histogram_up_0,ppg4_histogram_up_1,ppg4_histogram_up_2,ppg4_histogram_up_3,ppg4_histogram_up_4,ppg4_histogram_down_0,ppg4_histogram_down_1,ppg4_histogram_down_2,ppg4_histogram_down_3,ppg4_histogram_down_4,ppg4_histogram_down_5,ppg4_histogram_down_6,ppg4_histogram_down_7,ppg4_histogram_down_8,ppg4_histogram_down_9,ppg4_max_0,usdc_0,usdc_1,usdc_2,usdc_3,usdc_4,usdc_5,dsdc_0,dsdc_1,dsdc_2,dsdc_3,dsdc_4,dsdc_5,dsdc_6,dsdc_7,dsdc_8,dsdc_9,dsdc_10,dsdc_11,dsdc_12,dsdc_13,dsdc_14,dsdc_15,dsdc_16,dsdc_17,dsdc_18,ppg_mean_cycles_match_peak_59,Tc,Ts,Td,Tsteepest,Steepest,TNegSteepest,NegSteepest,TdiaRise,DiaRise,SteepDiaRise,TSystoDiaRise,TdiaToEnd,Ratio,Ts_norm,Td_norm,Tsteepest_norm,TNegSteepest_norm,TdiaRise_norm,TSystoDiaRise_norm,TdiaToEnd_norm,SW25,SW25_norm,DW25,DW25_norm,SWaddDW25,SWaddDW25_norm,DWdivSW25,SW50,SW50_norm,DW50,DW50_norm,SWaddDW50,SWaddDW50_norm,DWdivSW50,SW75,SW75_norm,DW75,DW75_norm,SWaddDW75,SWaddDW75_norm,DWdivSW75,S1,S2,S3,S4,AUCsys,AUCdia,S1_norm,S2_norm,S3_norm,S4_norm,AUCsys_norm,AUCdia_norm,SQI_skew,SQI_kurtosis,apg_a,apg_b,apg_c,apg_d,apg_e,ppg_a,ppg_b,ppg_c,ppg_d,ppg_e,ratio_apg_b,ratio_apg_c,ratio_apg_d,ratio_apg_e,ratio_ppg_b,ratio_ppg_c,ratio_ppg_d,ratio_ppg_e,T_a,T_b,T_c,T_d,T_e,T_a_norm,T_b_norm,T_c_norm,T_d_norm,T_e_norm,T_peak_a,T_peak_b,T_peak_c,T_peak_d,T_peak_e,T_peak_a_norm,T_peak_b_norm,T_peak_c_norm,T_peak_d_norm,T_peak_e_norm,AI,bd,bcda,sdoo
X1005,X1005_0,102.00119005981156306007,58.73108263532712669530,45.00000000000000000000,0.00761589419600767776,0.00330651377092000195,78.12500000000000000000,96.00000000000000000000,0.92847719224676938943,79.00000000000000000000,0.87372421698719482386,28.00000000000000000000,0.86044374310564708530,19.00000000000000000000,0.83394688389933158135,14.00000000000000000000,0.77255708492927599451,11.00000000000000000000,1.94444444444444441977,0.55555555555555558023,0.55555555555555535818,0.55555555555555569125,1.38888888888888928363,2.74193548387096752705,0.96774193548387099639,2.74193548387096663888,1.29032258064516147655,0.32258064516129036914,0.32258064516129003607,0.32258064516129036914,0.32258064516129036914,0.32258064516129036914,0.64516129032258073828,18.00000000000000000000,0.00000000000000000000,0.55555555555555558023,1.38888888888888839546,0.83333333333333348136,2.22222222222222276500,1.77419354838709675271,0.80645161290322575631,4.35483870967741726332,1.61290322580645217876,1.45161290322580671663,0.00000000000000000000,0.00000000000000000000,0.00000000000000000000,0.00000000000000000000,0.00000000000000000000,11.00000000000000000000,1.11111111111111116045,0.27777777777777779011,0.55555555555555535818,1.11111111111111138250,1.94444444444444486386,0.32258064516129031363,0.16129032258064515681,0.16129032258064510130,0.32258064516129036914,1.45161290322580671663,5.16129032258064057714,0.96774193548387121844,1.45161290322580671663,0.00000000000000000000,0.00000000000000000000,6.00000000000000000000,1.38888888888888883955,0.55555555555555558023,0.55555555555555535818,0.83333333333333348136,1.66666666666666696273,0.00000000000000000000,0.00000000000000000000,0.00000000000000000000,0.00000000000000000000,0.80645161290322608938,0.64516129032258007214,4.03225806451612989179,3.06451612903225845130,0.64516129032258073828,0.80645161290322608938,21.00000000000000000000,1.38888888888888883955,0.55555555555555558023,0.83333333333333303727,1.11111111111111138250,1.11111111111111138250,0.00000000000000000000,0.00000000000000000000,0.00000000000000000000,1.29032258064516147655,4.03225806451612989179,3.38709677419354537875,0.96774193548387121844,0.16129032258064518457,0.16129032258064518457,0.00000000000000000000,16.00000000000000000000,-0.00331735747457992825,-0.02436081455803516815,-0.11523588350696101212,-0.20516957770864069355,-0.24866702405329066394,-0.18183331596888102633,-0.00924017007696703759,0.05089579575313799703,0.17463263036939180584,0.33255978277923364805,0.48146860809731889530,0.61777070142952494880,0.68230348752525782352,0.67738392421630333473,0.59450770812530528975,0.53067330527556921815,0.51283703764267007941,0.57021189526311966134,0.63701412779119892527,0.73108374640054463178,0.80236228260102748777,0.87116826021204862851,0.90170354267449348562,0.94971840430316922799,0.96295297126206413907,0.19551973542809128470,0.76319999999999998952,0.17280000000000000915,0.59040000000000003588,0.10080000000000000071,0.06734562241674950378,0.23519999999999999241,-0.03286318718605187733,0.41280000000000000027,0.20344938004209853211,0.01083187793913754568,0.23999999999999999112,0.35039999999999993374,3.73937063311608008931,0.22647849462365590711,0.77352150537634412064,0.13212365591397848275,0.30826612903225802942,0.54092741935483856786,0.31444892473118279952,0.45907258064516132112,0.09600000000000000200,0.12580645161290321399,0.17759999999999998010,0.23252688172043015080,0.27360000000000000986,0.35833333333333333703,1.85000000000000008882,0.07199999999999999456,0.09435483870967742437,0.10880000000000000782,0.14247311827956993247,0.18079999999999998850,0.23682795698924730132,1.51111111111111107164,0.04800000000000000100,0.06290322580645160699,0.06239999999999999714,0.08172043010752687298,0.11040000000000001201,0.14462365591397852160,1.29999999999999982236,1.06984778432490190703,4.88551212791635691701,11.58330967247847098633,4.81302203017176921662,5.95535991224125815791,16.39633170265024020296,0.17959583306794479896,0.82040416693205509002,0.70590571969656568108,0.29409428030343426341,0.26672647548328515255,0.73327352451671479194,0.93850565990818013429,0.36950309094603867033,0.00870402582240943287,-0.01067394469912610368,-0.00881850964661616901,-0.00749049546441196180,0.00379241130044490884,0.15750327635099137247,0.74432251472225674505,0.75413002854383015539,0.74073217897679433097,0.17349301431734656664,-1.22658311278708387349,-1.01350451402110652843,-0.86094108923522116861,0.43683800152682444873,4.74833210109726078230,4.81234918156134305889,4.72728237930473405015,1.10909665869413442962,0.05279999999999999971,0.08799999999999999489,0.02400000000000000050,0.00800000000000000017,0.18239999999999997882,0.06922043010752688963,0.11532258064516127949,0.03145161290322580350,0.01048387096774193450,0.23891129032258065501,0.11999999999999999556,0.03200000000000000067,-0.00800000000000000017,0.00000000000000000000,0.18239999999999997882,0.15725806451612903136,0.04193548387096773800,-0.01048387096774193450,0.00000000000000000000,0.23891129032258065501,0.21102448894241954136,-0.00918939679557404486,0.64786249046924404560,0.00064866969851964538
X1005,X1005_1,101.37398802500308647723,58.36696454330281369494,36.00000000000000000000,0.01427418135087283289,0.01348078040757636452,77.31958762886598890418,97.00000000000000000000,0.92857883554978815077,3.00000000000000000000,0.87506329186652964669,28.00000000000000000000,0.86258574098923990192,19.00000000000000000000,0.83442356259302097321,14.00000000000000000000,0.75887721148029874119,11.00000000000000000000,2.05882352941176449690,0.58823529411764707842,0.58823529411764685637,0.58823529411764718944,1.17647058823529437888,2.85714285714285720630,0.95238095238095232808,2.69841269841269770779,1.11111111111111138250,0.31746031746031749821,0.31746031746031716514,0.31746031746031749821,0.31746031746031749821,0.47619047619047633058,0.63492063492063499641,17.00000000000000000000,0.00000000000000000000,0.88235294117647056211,0.88235294117647022905,1.17647058823529437888,2.05882352941176494099,1.74603174603174604584,0.63492063492063488539,3.96825396825396703449,2.22222222222222276500,1.42857142857142882519,0.00000000000000000000,0.00000000000000000000,0.00000000000000000000,0.00000000000000000000,0.00000000000000000000,11.00000000000000000000,0.88235294117647056211,0.58823529411764707842,0.29411764705882342819,1.17647058823529437888,2.05882352941176494099,0.31746031746031744269,0.15873015873015872135,0.15873015873015866584,0.31746031746031749821,1.58730158730158765756,5.07936507936507464223,1.26984126984126999282,1.11111111111111138250,0.00000000000000000000,0.00000000000000000000,6.00000000000000000000,1.47058823529411775155,0.58823529411764707842,0.58823529411764685637,0.29411764705882359472,2.05882352941176494099,0.00000000000000000000,0.00000000000000000000,0.00000000000000000000,0.00000000000000000000,0.79365079365079382878,0.63492063492063433028,3.96825396825396925493,3.33333333333333436954,0.47619047619047633058,0.79365079365079382878,21.00000000000000000000,1.47058823529411775155,0.58823529411764707842,0.88235294117647022905,1.17647058823529437888,0.88235294117647078416,0.00000000000000000000,0.00000000000000000000,0.00000000000000000000,0.95238095238095266115,3.33333333333333436954,4.12698412698412298028,1.11111111111111138250,0.15873015873015874910,0.15873015873015874910,0.15873015873015874910,16.00000000000000000000,-0.00273749910476245046,-0.02223792610606353110,-0.11233032147976178272,-0.20620737981497533342,-0.25285081682750193410,-0.18903771794412194129,-0.01067274248104274278,0.04915446236088693438,0.17424168180606694478,0.33296909757470610769,0.48198096926735195522,0.61726037120154386706,0.67770714312728530526,0.66685467031761791468,0.58589152860431359393,0.53322323644473945681,0.52660700199372134644,0.59050340140319423909,0.66053324572928484582,0.75207619276481341153,0.81778533560253274803,0.88264695097851664229,0.90879625631297000776,0.94989484871112250808,0.95768162932303513291,0.19318516884982347981,0.77800000000000002487,0.16800000000000001044,0.60999999999999998668,0.09600000000000000200,0.08591443743805693423,0.23999999999999999112,-0.04188357331645950477,0.41399999999999997913,0.26111434922576715056,0.01327974502058838074,0.24599999999999999645,0.36399999999999999023,3.68775478295211112112,0.21612472277462907444,0.78387527722537098107,0.12349984158550232627,0.30893393090708842763,0.53250640573575835912,0.31638168296112928468,0.46749359426424164088,0.09199999999999999845,0.11834301011288139716,0.21400000000000002354,0.27294310338088678680,0.30599999999999999423,0.39128611349376818396,2.31439393939393944777,0.06800000000000000488,0.08746804971650580518,0.11199999999999998845,0.14389882157308675481,0.17999999999999999334,0.23136687128959254611,1.65277777777777790114,0.04400000000000000439,0.05659308932013021320,0.06400000000000000133,0.08233322772366821751,0.10799999999999999878,0.13892631704379845847,1.46666666666666678509,1.19756333734415987280,6.05344415135308810960,15.13131202835922906047,6.10232813309705779403,7.25100748869724842649,21.23364016145628596632,0.16499668648737542131,0.83500331351262457869,0.71212170439377409092,0.28787829560622590908,0.25476416279720021096,0.74523583720279973353,0.95609599670197509269,0.36561193600030983397,0.01104760338118639801,-0.01351690906300620498,-0.01144983489508225039,-0.00982879522507112968,0.00481180553233483826,0.17857732644747686956,0.95015561270208392930,0.95727723212479820525,0.94325384434808368095,0.21898001424116311786,-1.22487043877043211282,-1.03765484080667746980,-0.89063251743014604234,0.43730025503652603103,5.34970849089128908105,5.39007885375542805662,5.31187264346789778102,1.23087699631808678014,0.04800000000000000100,0.09400000000000000022,0.01800000000000000211,0.00800000000000000017,0.18399999999999999689,0.06174992079275116313,0.12102459406074984882,0.02305855445566953182,0.01029165346545852719,0.23652370276221348910,0.11999999999999999556,0.02600000000000000228,-0.00800000000000000017,0.00000000000000000000,0.18399999999999999689,0.15437480198187791824,0.03335020792112805554,-0.01029165346545852719,0.00000000000000000000,0.23652370276221348910,0.26611666442986531278,-0.01148618376133516729,0.70341691946639139932,0.00025931900617096607
X1005,X1005_2,101.96231685207575878849,60.15922354789630333016,45.00000000000000000000,0.00611436470371983735,0.00299203683222859160,79.36507936507936733506,94.50000000000000000000,0.92805096298213707318,79.00000000000000000000,0.87979930235013481532,29.00000000000000000000,0.86692743206139777357,19.00000000000000000000,0.87477427514244054940,15.00000000000000000000,0.75382598835125613768,11.00000000000000000000,2.22222222222222232091,0.55555555555555558023,0.55555555555555535818,0.55555555555555569125,1.11111111111111138250,2.58064516129032250902,0.96774193548387099639,2.41935483870967660280,1.61290322580645217876,0.32258064516129036914,0.32258064516129003607,0.32258064516129036914,0.48387096774193560922,0.32258064516129036914,0.64516129032258073828,18.00000000000000000000,0.00000000000000000000,0.83333333333333337034,1.11111111111111071637,1.11111111111111138250,1.94444444444444486386,1.77419354838709675271,0.64516129032258062725,4.35483870967741726332,1.77419354838709719679,1.45161290322580671663,0.00000000000000000000,0.00000000000000000000,0.00000000000000000000,0.00000000000000000000,0.00000000000000000000,11.00000000000000000000,1.11111111111111116045,0.27777777777777779011,0.27777777777777767909,1.66666666666666696273,1.66666666666666696273,0.32258064516129031363,0.16129032258064515681,0.32258064516129020260,0.16129032258064518457,1.77419354838709719679,4.99999999999999555911,0.80645161290322608938,1.45161290322580671663,0.00000000000000000000,0.00000000000000000000,7.00000000000000000000,1.38888888888888883955,0.55555555555555558023,0.55555555555555535818,0.83333333333333348136,1.66666666666666696273,0.00000000000000000000,0.00000000000000000000,0.00000000000000000000,0.00000000000000000000,0.96774193548387121844,0.48387096774193510962,3.54838709677419439359,3.70967741935483941162,0.48387096774193560922,0.80645161290322608938,21.00000000000000000000,1.11111111111111116045,0.83333333333333337034,0.55555555555555535818,1.38888888888888928363,1.11111111111111138250,0.00000000000000000000,0.00000000000000000000,0.00000000000000000000,1.12903225806451645852,3.87096774193548487375,3.54838709677419039679,0.96774193548387121844,0.16129032258064518457,0.16129032258064518457,0.16129032258064518457,17.00000000000000000000,-0.00237133310271720604,-0.01925845909557319727,-0.10460812078075425180,-0.18939267796898442975,-0.23531006175323546104,-0.16773495936774193704,-0.00842146189752297769,0.04479621629363680912,0.15820401198574662871,0.30958552783219883686,0.45599978464838503145,0.59253978809718144127,0.65899209940709280175,0.65827424457467387242,0.58039423693012026639,0.51937778942414913885,0.50094589221145757740,0.55695951123631926016,0.62344113098817310892,0.71759537991546262781,0.78996445545262783394,0.86133686753216753829,0.89413634949405496055,0.94322670263890784348,0.95874697062044733631,0.22399774316433102017,0.76319999999999998952,0.17119999999999996332,0.59199999999999997069,0.09759999999999999232,0.07232984767524076875,0.24159999999999998144,-0.03477770053828295460,0.41120000000000000995,0.22831937785221959047,0.01097797407472701423,0.23999999999999999112,0.35199999999999997957,3.58350589775292949213,0.22435485911593305852,0.77564514088406677494,0.12793885151875628026,0.31673264154784025459,0.53889542253029520946,0.31454056341436220645,0.46110457746970467952,0.09279999999999999361,0.12164407311629035768,0.24159999999999998144,0.31465843587502123624,0.33439999999999997504,0.43630250899131162168,2.61666666666666625218,0.06720000000000000973,0.08803513839166637878,0.11359999999999999265,0.14880326192641074590,0.18079999999999998850,0.23683840031807718018,1.69722222222222218768,0.04319999999999999535,0.05657674130145100289,0.06560000000000000553,0.08595091457734412022,0.10880000000000000782,0.14252765587879512310,1.53333333333333321491,1.06070591708556860588,5.27553395401600422332,13.00634806507820329102,5.44421276443760682184,6.33623987110157393943,18.45056082951581544194,0.16767207727481348023,0.83232792272518651977,0.70432857610872512399,0.29567142389127487601,0.25573704243354422605,0.74426295756645577395,0.89823433024016863246,0.37886387075555216786,0.00929391367585088134,-0.01134346235077783246,-0.00949472307506384929,-0.00811877244844312271,0.00407729004306345288,0.16905495973245007746,0.80684002542894983634,0.81395169214131646296,0.80226294080646687323,0.19980126996494318448,-1.22136185873886304876,-1.02265024455078235022,-0.87460792829744582466,0.44076144457653515518,4.86797534476409055060,4.91041881326964535504,4.84066267921959525466,1.20939290297441748301,0.05279999999999999971,0.09119999999999998941,0.01920000000000000179,0.00800000000000000017,0.18080000000000001625,0.06921341129926472657,0.11953697124202759816,0.02511834421123560965,0.01048613236340512761,0.23688183607822299592,0.11839999999999999136,0.02720000000000000195,-0.00800000000000000017,0.00000000000000000000,0.18080000000000001625,0.15514144781666833195,0.03560447657464073379,-0.01048613236340512761,0.00000000000000000000,0.23688183607822299592,0.23513486953283013747,-0.00962185889335757071,0.67589631410936523714,0.00034874895888076035
X1005,X1005_3,105.56559037860050409563,60.26826899614382426762,39.00000000000000000000,0.00918225619456698207,0.00628510383925345861,79.78723404255319451295,94.00000000000000000000,0.93495381217373196847,79.00000000000000000000,0.87963272346750509545,29.00000000000000000000,0.86895764236271255676,19.00000000000000000000,0.88128852661894008236,14.00000000000000000000,0.78532548679711244866,10.00000000000000000000,2.22222222222222232091,0.55555555555555558023,0.55555555555555535818,0.55555555555555569125,1.11111111111111138250,2.58064516129032250902,0.96774193548387099639,2.74193548387096663888,1.29032258064516147655,0.32258064516129036914,0.32258064516129003607,0.32258064516129036914,0.32258064516129036914,0.32258064516129036914,0.80645161290322608938,18.00000000000000000000,0.00000000000000000000,0.83333333333333337034,1.11111111111111071637,1.11111111111111138250,1.94444444444444486386,1.93548387096774199279,0.64516129032258062725,4.19354838709677224529,1.77419354838709719679,1.45161290322580671663,0.00000000000000000000,0.00000000000000000000,0.00000000000000000000,0.00000000000000000000,0.00000000000000000000,11.00000000000000000000,1.11111111111111116045,0.27777777777777779011,0.27777777777777767909,1.38888888888888928363,1.94444444444444486386,0.32258064516129031363,0.16129032258064515681,0.32258064516129020260,0.16129032258064518457,1.77419354838709719679,4.83870967741935054107,1.12903225806451645852,1.29032258064516147655,0.00000000000000000000,0.00000000000000000000,7.00000000000000000000,1.38888888888888883955,0.55555555555555558023,0.55555555555555535818,0.55555555555555569125,1.94444444444444486386,0.00000000000000000000,0.00000000000000000000,0.00000000000000000000,0.00000000000000000000,0.80645161290322608938,0.64516129032258007214,3.06451612903225845130,4.19354838709677490982,0.32258064516129036914,0.96774193548387121844,21.00000000000000000000,1.11111111111111116045,0.83333333333333337034,0.55555555555555535818,1.66666666666666696273,0.83333333333333348136,0.00000000000000000000,0.00000000000000000000,0.00000000000000000000,1.12903225806451645852,4.03225806451612989179,3.54838709677419039679,0.96774193548387121844,0.00000000000000000000,0.16129032258064518457,0.16129032258064518457,17.00000000000000000000,-0.00384961003159905871,-0.01679453070348633018,-0.09609876464094517512,-0.17806324879515031401,-0.22310351815100240569,-0.16460812830245705185,-0.01461213155397290096,0.02450079589521506063,0.12639486018336926199,0.26655169450519416996,0.40292127291342477724,0.53645281625351237675,0.61392188662736324467,0.63372008406344293441,0.57267533516217361544,0.51426293799623590264,0.48590213092216844037,0.52863690885336656056,0.58644259838025813991,0.67718117901962726624,0.74867022379260472764,0.82197767694919343651,0.85996908872350197317,0.91529113147489138402,0.93755287407148191203,0.22509975938947984764,0.75839999999999996305,0.16800000000000001044,0.59040000000000003588,0.09439999999999999780,0.06055875732667435202,0.23840000000000000080,-0.02932231787021655212,0.41120000000000000995,0.46667355856420289495,0.00838089259966259305,0.24319999999999999951,0.34720000000000006413,2.10996690765510752641,0.22165062086724102164,0.77834937913275892285,0.12460766445036178252,0.31467774853542407332,0.54235695054170274254,0.32070632967446177641,0.45764304945829720195,0.16800000000000001044,0.22165062086724102164,0.54239999999999999325,0.71624719403680947583,0.71040000000000003144,0.93789781490405066400,3.22038961038960991345,0.09119999999999998941,0.12035234530142562004,0.16480000000000000204,0.21725501647163664165,0.25600000000000000533,0.33760736177306227557,1.81060606060606055223,0.05759999999999999842,0.07593136973013511759,0.08639999999999999070,0.11391592457929060334,0.14399999999999998912,0.18984729430942573480,1.50357142857142855874,1.42901929070673072708,4.85516646685734798439,12.41944674191447006706,5.49616035817208636871,6.28418575756407893351,17.91560710008655732395,0.20408294302594995329,0.79591705697405001896,0.69978176490220256323,0.30021823509779743677,0.26013290737805505604,0.73986709262194483294,0.82225084361515177189,0.38992618866090528185,0.00783289836852484392,-0.00938011015994488773,-0.00786925808621439203,-0.00674935965587524205,0.00340654636505308703,0.43110707832455708033,0.96802092710823328670,0.97711383091812131774,0.96737598441996097698,0.44642371369760136535,-1.19790689756810797562,-1.00483993874947286074,-0.86183442935365595083,0.43588748951236250262,2.24918086260203287097,2.27064367223556962117,2.24793378380320696408,1.03624228275481300443,0.04800000000000000100,0.09119999999999998941,0.02080000000000000251,0.00800000000000000017,0.18719999999999997753,0.06340056396459742283,0.12028220267809150434,0.02741206088118005105,0.01055579334337207291,0.24690261951879474700,0.11999999999999999556,0.02879999999999999921,-0.00800000000000000017,0.00000000000000000000,0.18719999999999997753,0.15825005690264362657,0.03796785422455211528,-0.01055579334337207291,0.00000000000000000000,0.24690261951879474700,0.23287998102265822231,-0.00803248058970111936,0.66876747053502083595,0.00028442058030984940
X1005,X1005_4,103.02489189452275297754,60.90165659224469152377,39.00000000000000000000,0.01398126435140811287,0.00848092811814950623,81.08108108108108069700,92.50000000000000000000,0.93080880827463607918,2.00000000000000000000,0.87931511814029383878,29.00000000000000000000,0.86550984347605319780,19.00000000000000000000,0.88144943381500096002,14.00000000000000000000,0.77852339329579811622,11.00000000000000000000,1.94444444444444441977,0.83333333333333337034,0.27777777777777767909,0.83333333333333348136,1.11111111111111138250,2.58064516129032250902,0.80645161290322575631,2.90322580645161210100,1.12903225806451645852,0.48387096774193560922,0.32258064516129003607,0.32258064516129036914,0.32258064516129036914,0.32258064516129036914,0.80645161290322608938,18.00000000000000000000,0.00000000000000000000,0.55555555555555558023,1.11111111111111071637,1.11111111111111138250,2.22222222222222276500,1.93548387096774199279,0.64516129032258062725,4.19354838709677224529,2.09677419354838745491,1.12903225806451645852,0.00000000000000000000,0.00000000000000000000,0.00000000000000000000,0.00000000000000000000,0.00000000000000000000,11.00000000000000000000,1.11111111111111116045,0.27777777777777779011,0.55555555555555535818,1.11111111111111138250,1.94444444444444486386,0.32258064516129031363,0.16129032258064515681,0.16129032258064510130,0.32258064516129036914,1.77419354838709719679,4.83870967741935054107,1.29032258064516147655,1.12903225806451645852,0.00000000000000000000,0.00000000000000000000,6.00000000000000000000,1.38888888888888883955,0.55555555555555558023,0.55555555555555535818,0.83333333333333348136,1.66666666666666696273,0.00000000000000000000,0.00000000000000000000,0.00000000000000000000,0.00000000000000000000,0.80645161290322608938,0.48387096774193510962,3.22580645161290435752,4.03225806451612989179,0.48387096774193560922,0.96774193548387121844,21.00000000000000000000,1.38888888888888883955,0.55555555555555558023,0.83333333333333303727,1.11111111111111138250,1.11111111111111138250,0.00000000000000000000,0.00000000000000000000,0.00000000000000000000,0.96774193548387121844,3.38709677419354937555,4.03225806451612545089,1.29032258064516147655,0.00000000000000000000,0.16129032258064518457,0.16129032258064518457,16.00000000000000000000,-0.00216561045854060013,-0.02422245750341213769,-0.10540370132135427894,-0.19323179939686321860,-0.23331678556401191926,-0.16548364099098036850,-0.01079620931707725787,0.03551790214023219094,0.14709924148770098240,0.29465537579622702591,0.43912020354284847512,0.57718159840247218462,0.65958611595817839834,0.67668616532973113742,0.61050070865625438721,0.54134195114136063332,0.50671650026066095140,0.54294304939046444947,0.60120826825845918862,0.69046527893108722296,0.76425530833203814129,0.83424639013834234191,0.87225447958605850651,0.92117820619215040612,0.93892113722745218496,0.22903603515078799213,0.74599999999999999645,0.16200000000000000511,0.58399999999999996358,0.08999999999999999667,0.07754118871639743837,0.23000000000000000999,-0.03646225010881279371,0.40599999999999997202,0.28218574729627249331,0.01100196231411892933,0.24399999999999999467,0.33999999999999996891,3.22797539136598032883,0.21715029943035202287,0.78284970056964797713,0.12061687521300940018,0.30830675787526173881,0.54430534592726032006,0.32715504649690829719,0.45569465407273967994,0.09800000000000000377,0.13134281123715857431,0.36799999999999999378,0.49339305711086228756,0.46599999999999996980,0.62473586834802086187,3.75961538461538458122,0.06999999999999999278,0.09381603291299479841,0.11999999999999999556,0.16091703588295439009,0.19000000000000000222,0.25473306879594920238,1.71527777777777767909,0.04599999999999999922,0.06163822484054724826,0.06999999999999999278,0.09390184526997419345,0.11599999999999999201,0.15554007011052145559,1.53333333333333321491,1.01323893944891407770,5.39902658959885872747,13.74749177402390465375,5.31681923407135048620,6.41226552904777236108,19.06431100809525602813,0.15774223662619246689,0.84225776337380753311,0.72065475062671957573,0.27934524937328025773,0.25187914131882849222,0.74812085868117139675,0.90230348577785401964,0.38202373738688599758,0.01004385057915467908,-0.01212094951114098262,-0.01024160355629191721,-0.00878725251213732794,0.00430359182831542564,0.21503698752613986667,0.89039224751866918872,0.90775952617737076800,0.89593956739017599489,0.25184003719391234721,-1.20718350937470786377,-1.02070736767751868435,-0.87603070046196918064,0.42930447727254439361,4.18582421507190360899,4.27167528854610978328,4.21649170418814112082,1.18954045476437375584,0.04399999999999999745,0.08799999999999999489,0.02199999999999999872,0.00800000000000000017,0.18800000000000000044,0.05897865037246214498,0.11798529626564097095,0.02946041676809971199,0.01072593602414917933,0.25207349432786407828,0.11799999999999999378,0.02999999999999999889,-0.00800000000000000017,0.00000000000000000000,0.18800000000000000044,0.15817164905788988483,0.04018635279224889306,-0.01072593602414917933,0.00000000000000000000,0.25207349432786407828,0.26025008149223599618,-0.01052703095846339865,0.68955455876478033428,0.00022880009627578848
X1005,X1005_5,101.15368396781275350804,58.14580185629132103031,39.00000000000000000000,0.01273204390356368759,0.00533438142054097533,79.36507936507936733506,94.50000000000000000000,0.93056922379574535942,79.00000000000000000000,0.88239046646865160195,29.00000000000000000000,0.86661363133622093535,19.00000000000000000000,0.83262247266017275216,14.00000000000000000000,0.77072093420621512472,11.00000000000000000000,2.22222222222222232091,0.55555555555555558023,0.55555555555555535818,0.55555555555555569125,1.11111111111111138250,2.58064516129032250902,0.96774193548387099639,3.06451612903225711904,0.96774193548387121844,0.32258064516129036914,0.32258064516129003607,0.32258064516129036914,0.32258064516129036914,0.32258064516129036914,0.80645161290322608938,18.00000000000000000000,0.00000000000000000000,0.83333333333333337034,1.11111111111111071637,1.11111111111111138250,1.94444444444444486386,1.93548387096774199279,0.64516129032258062725,4.51612903225806228136,1.45161290322580671663,1.12903225806451645852,0.32258064516129003607,0.00000000000000000000,0.00000000000000000000,0.00000000000000000000,0.00000000000000000000,11.00000000000000000000,1.11111111111111116045,0.27777777777777779011,0.27777777777777767909,1.66666666666666696273,1.66666666666666696273,0.32258064516129031363,0.16129032258064515681,0.16129032258064510130,0.32258064516129036914,1.77419354838709719679,4.83870967741935054107,0.96774193548387121844,1.45161290322580671663,0.00000000000000000000,0.00000000000000000000,7.00000000000000000000,1.38888888888888883955,0.55555555555555558023,0.83333333333333303727,0.55555555555555569125,1.66666666666666696273,0.00000000000000000000,0.00000000000000000000,0.00000000000000000000,0.00000000000000000000,0.80645161290322608938,0.64516129032258007214,3.22580645161290435752,4.03225806451612989179,0.48387096774193560922,0.80645161290322608938,21.00000000000000000000,1.38888888888888883955,0.83333333333333337034,0.55555555555555535818,1.38888888888888928363,0.83333333333333348136,0.00000000000000000000,0.00000000000000000000,0.00000000000000000000,1.12903225806451645852,4.35483870967741992786,3.22580645161290036071,0.80645161290322608938,0.16129032258064518457,0.16129032258064518457,0.16129032258064518457,17.00000000000000000000,-0.00198042270009122145,-0.01935284335411778175,-0.10104618745171264904,-0.18721303580655504484,-0.23123716605169061800,-0.16314774725709627057,-0.00662557185476311122,0.04968136660057868859,0.16693385419369305422,0.32319782515170569770,0.47448368323567180482,0.61745495909756453745,0.69372523457000245806,0.70344446814427430414,0.62771658144990460926,0.55586328401404694333,0.51929652981494522912,0.55959715444962809805,0.61680934743239379525,0.70708563375524502437,0.77912678446324812320,0.85256914942881822927,0.88862950990135947116,0.94061156080067642726,0.95820974900902267102,0.21502006320841932085,0.75359999999999993658,0.16960000000000000075,0.58399999999999996358,0.09600000000000000200,0.08378120325710861072,0.23999999999999999112,-0.04124908984158537351,0.41280000000000000027,0.23895679647695794445,0.01396370104898376173,0.24319999999999999951,0.34079999999999993632,3.93395059682485381813,0.22506785020053637902,0.77493214979946356546,0.12741972392411601844,0.31854930981029011550,0.54780575650205454163,0.32273790630151816261,0.45219424349794545837,0.09119999999999998941,0.12099001008833445980,0.16960000000000000075,0.22490862060480795726,0.26080000000000003180,0.34589863069314236155,1.86212121212121206604,0.06720000000000000973,0.08913507910730543438,0.11039999999999998426,0.14648243153465712041,0.17759999999999998010,0.23561751064196254091,1.64999999999999991118,0.04319999999999999535,0.05728014812627642283,0.06400000000000000133,0.08494648261607735951,0.10720000000000000362,0.14222663074235378233,1.49333333333333340143,1.15306365844060954018,6.02978624607596636054,14.52810508936304856320,5.88795528124057110375,7.18284990451657545663,20.41606037060362410784,0.16128650683008349809,0.83871349316991650191,0.71095919184210598640,0.28904080815789412462,0.26029999128972880484,0.73970000871027108413,0.94870496555171812680,0.37070077859455896618,0.01078818766770080727,-0.01330167795349905882,-0.01120793946570035685,-0.00959221875012952231,0.00489657406413602798,0.19822851099690447230,0.92017331199147756049,0.93254254070550079980,0.91841606998826885722,0.19740013420253257892,-1.23424465163798369183,-1.04103999499106070203,-0.89134104662698787624,0.45634492675734961153,4.71743363073456034584,4.78554812878674429300,4.71287456815583283287,1.01949345360513343728,0.05279999999999999971,0.08799999999999999489,0.02080000000000000251,0.00800000000000000017,0.18719999999999997753,0.07011764597327821424,0.11680141359710635718,0.02753048030314214634,0.01061831032700966994,0.24838635860338081907,0.11679999999999998717,0.02880000000000000268,-0.00800000000000000017,0.00000000000000000000,0.18719999999999997753,0.15495020422725819254,0.03814879063015181454,-0.01061831032700966994,0.00000000000000000000,0.24838635860338081907,0.24179146322271521941,-0.01144586775578316021,0.69813638998006477543,0.00031218115380734205
X1005,X1005_6,103.41732104788962942621,59.68628302374226279881,45.00000000000000000000,0.01033103302954053310,0.00754288018731838136,79.36507936507936733506,94.50000000000000000000,0.93134022957140005783,2.00000000000000000000,0.87470481753368467537,29.00000000000000000000,0.86180105375975202264,19.00000000000000000000,0.83624310521525124784,14.00000000000000000000,0.77619170356885958117,11.00000000000000000000,1.94444444444444441977,0.83333333333333337034,0.55555555555555535818,0.55555555555555569125,1.11111111111111138250,2.90322580645161298918,0.96774193548387099639,2.74193548387096663888,1.12903225806451645852,0.32258064516129036914,0.32258064516129003607,0.32258064516129036914,0.32258064516129036914,0.32258064516129036914,0.64516129032258073828,18.00000000000000000000,0.00000000000000000000,0.83333333333333337034,0.83333333333333303727,1.11111111111111138250,2.22222222222222276500,1.77419354838709675271,0.80645161290322575631,4.67741935483870818757,1.61290322580645217876,1.12903225806451645852,0.00000000000000000000,0.00000000000000000000,0.00000000000000000000,0.00000000000000000000,0.00000000000000000000,11.00000000000000000000,1.11111111111111116045,0.27777777777777779011,0.55555555555555535818,1.11111111111111138250,1.94444444444444486386,0.32258064516129031363,0.16129032258064515681,0.16129032258064510130,0.16129032258064518457,1.61290322580645217876,5.16129032258064057714,1.29032258064516147655,1.12903225806451645852,0.00000000000000000000,0.00000000000000000000,6.00000000000000000000,1.38888888888888883955,0.55555555555555558023,0.55555555555555535818,0.83333333333333348136,1.66666666666666696273,0.00000000000000000000,0.00000000000000000000,0.00000000000000000000,0.00000000000000000000,0.80645161290322608938,0.64516129032258007214,4.03225806451612989179,3.22580645161290435752,0.48387096774193560922,0.80645161290322608938,21.00000000000000000000,1.38888888888888883955,0.55555555555555558023,0.83333333333333303727,1.11111111111111138250,1.11111111111111138250,0.00000000000000000000,0.00000000000000000000,0.00000000000000000000,1.12903225806451645852,4.03225806451612989179,3.54838709677419039679,0.96774193548387121844,0.16129032258064518457,0.00000000000000000000,0.16129032258064518457,16.00000000000000000000,-0.00337276866577944498,-0.02500934192610742082,-0.11572282543687088807,-0.20498844327427562240,-0.24812478969316531519,-0.18146568362206055847,-0.01024400176793399675,0.04476017401692670289,0.16157886474863503157,0.31411840705884697122,0.46139067534191119391,0.59974560056143078057,0.66880036017435906537,0.66995776374638360551,0.59447243457903442554,0.53669931545226012837,0.52045089769241259514,0.57532870938107338876,0.63895521978554825626,0.73009090260965026076,0.79884098631949496117,0.86633597359166658602,0.89669009418480916107,0.94354531928697293885,0.95573773726133859352,0.20712786200356025912,0.76400000000000001243,0.17200000000000001399,0.59199999999999997069,0.10000000000000000555,0.06412751355014811860,0.24199999999999999289,-0.03138491327685929977,0.41199999999999997735,0.44829858502819502908,0.01021888756158786937,0.23999999999999999112,0.35199999999999997957,2.18855150888973959411,0.22523390433157935986,0.77476609566842069565,0.13093941300444389420,0.31700314313346222850,0.53938595590427262927,0.31415205157269332492,0.46061404409572731522,0.17200000000000001399,0.22523390433157935986,0.57200000000000006395,0.74833148315689501651,0.74399999999999999467,0.97356538748847443188,3.32575757575757569029,0.08799999999999999489,0.11524882273316555681,0.14799999999999999267,0.19355548232843189371,0.23599999999999998757,0.30880430506159745052,1.68181818181818187874,0.05600000000000000117,0.07334015992110536064,0.07799999999999999989,0.10208348498713974706,0.13400000000000000799,0.17542364490824510770,1.39285714285714301575,1.03808772105484825587,4.65651563601106843748,11.28288663350721421352,4.72417329360330118249,5.69460335706591713745,16.00705992711051450783,0.18154250159019300059,0.81845749840980697165,0.70429743252874921211,0.29570256747125078789,0.26256151667904575886,0.73743848332095418563,0.93601860814775261765,0.37182126243824653589,0.00822891063566995318,-0.01010061536735029630,-0.00842006120699101412,-0.00718438188058517779,0.00379162266784359436,0.40179982551475990071,0.96736200026046692546,0.97633479152254865063,0.96476501453521912310,0.42047999708703115429,-1.22790754549757741287,-1.02367230839656242480,-0.87346201259557776364,0.46172640138247966757,2.40946477722564234014,2.43193547553807620787,2.40320395548220844262,1.04731427704396651279,0.05200000000000000455,0.08999999999999999667,0.02199999999999999872,0.00800000000000000017,0.17999999999999999334,0.06807641878635357913,0.11785298939983222810,0.02882733044237848624,0.01047716570301505251,0.23559846708332465859,0.11999999999999999556,0.02999999999999999889,-0.00800000000000000017,0.00000000000000000000,0.17999999999999999334,0.15715748554522573910,0.03930449614539353875,-0.01047716570301505251,0.00000000000000000000,0.23559846708332465859,0.20750037411208316351,-0.00866715409857567697,0.66922677549456277557,0.00043967608220709585
X1005,X1005_7,103.91184967739044964219,61.35337015167317531450,39.00000000000000000000,0.01550254438605928875,0.00801141399081104801,79.36507936507936733506,94.50000000000000000000,0.93187051844766133346,2.00000000000000000000,0.87732437370518678854,29.00000000000000000000,0.85990178648096604608,19.00000000000000000000,0.84988076670735446250,14.00000000000000000000,0.74124586433443917510,11.00000000000000000000,2.22222222222222232091,0.55555555555555558023,0.55555555555555535818,0.55555555555555569125,1.11111111111111138250,2.58064516129032250902,0.96774193548387099639,2.41935483870967660280,1.61290322580645217876,0.32258064516129036914,0.32258064516129003607,0.48387096774193560922,0.32258064516129036914,0.32258064516129036914,0.64516129032258073828,18.00000000000000000000,0.00000000000000000000,0.83333333333333337034,1.11111111111111071637,1.11111111111111138250,1.94444444444444486386,1.93548387096774199279,0.48387096774193549820,4.83870967741935320561,1.29032258064516147655,1.45161290322580671663,0.00000000000000000000,0.00000000000000000000,0.00000000000000000000,0.00000000000000000000,0.00000000000000000000,11.00000000000000000000,1.11111111111111116045,0.27777777777777779011,0.27777777777777767909,1.38888888888888928363,1.94444444444444486386,0.32258064516129031363,0.16129032258064515681,0.32258064516129020260,0.16129032258064518457,1.77419354838709719679,4.99999999999999555911,0.96774193548387121844,1.29032258064516147655,0.00000000000000000000,0.00000000000000000000,7.00000000000000000000,1.38888888888888883955,0.55555555555555558023,0.55555555555555535818,0.83333333333333348136,1.66666666666666696273,0.00000000000000000000,0.00000000000000000000,0.00000000000000000000,0.00000000000000000000,0.80645161290322608938,0.64516129032258007214,3.06451612903225845130,4.19354838709677490982,0.48387096774193560922,0.80645161290322608938,21.00000000000000000000,1.38888888888888883955,0.83333333333333337034,0.55555555555555535818,1.38888888888888928363,0.83333333333333348136,0.00000000000000000000,0.00000000000000000000,0.00000000000000000000,1.29032258064516147655,3.70967741935483941162,3.38709677419354537875,1.12903225806451645852,0.16129032258064518457,0.16129032258064518457,0.16129032258064518457,17.00000000000000000000,-0.00273944550422518685,-0.02416850249286547209,-0.11471287406603405956,-0.20219984170690491476,-0.24526875182169369238,-0.17637170290966155961,-0.00985629178465858950,0.04227322825505343273,0.15540131204193011194,0.30605423832494327296,0.45309102747032781178,0.59170845008597361403,0.66025257881610754929,0.65969620369670534110,0.58145476268888929283,0.52073738447601736201,0.50298083213829769544,0.55844678653426560455,0.62419050703087841647,0.71698885624896002700,0.78601672464645111482,0.85263342306824385641,0.88287568837144159151,0.93073543051430240869,0.94553970807121490161,0.21356959758415403061,0.75679999999999991722,0.16640000000000002012,0.59040000000000003588,0.09279999999999999361,0.08329180647091856404,0.23840000000000000080,-0.03952518980074752608,0.40479999999999999316,0.25900612550284624058,0.01258450373291616388,0.23840000000000000080,0.35199999999999997957,3.60893802167321320340,0.21992986068465603111,0.78007013931534396889,0.12267608580476585534,0.31516797312430011591,0.53489670254909749136,0.31496684186444151576,0.46510329745090245313,0.09119999999999998941,0.12052554817035725232,0.24319999999999999951,0.32050050271526447920,0.33439999999999997504,0.44102605088562174540,2.66515151515151504924,0.06560000000000000553,0.08668171802189070241,0.11359999999999999265,0.15004685486881236267,0.17919999999999997042,0.23672857289070306508,1.73333333333333361459,0.04319999999999999535,0.05709320702236029416,0.06720000000000000973,0.08876505135522402834,0.11040000000000001201,0.14585825837758431556,1.57333333333333325044,1.08022933432378609453,5.95796858346599300660,14.79153200588794980774,6.30917545597498019561,7.03819791778977865704,21.10070746186292822699,0.15390597014587520386,0.84609402985412474063,0.70006333941044329716,0.29993666058955675835,0.25020233089613125310,0.74979766910386880241,0.90185901467263052123,0.37914782072360481147,0.01071218517974341020,-0.01302156285730165022,-0.01104749528521880089,-0.00946306704229420495,0.00477442219632535046,0.18399260141822093573,0.92323228746221663865,0.93054785861084765575,0.91766222417378384701,0.22816732878527848372,-1.21649769238298111063,-1.03211463530311675640,-0.88404231256704035591,0.44730895637810857979,5.06266154109176724774,5.10134424054215696032,5.03063987241097976266,1.24932962166636096768,0.04800000000000000100,0.09279999999999999361,0.01760000000000000106,0.00800000000000000017,0.18239999999999997882,0.06345427097255837423,0.12265415598020446009,0.02324937687389372690,0.01057205685799949418,0.24096244385844500790,0.11839999999999999136,0.02560000000000000123,-0.00800000000000000017,0.00000000000000000000,0.18239999999999997882,0.15647558971209765688,0.03382143373189321761,-0.01057205685799949418,0.00000000000000000000,0.24096244385844500790,0.25235029910906708883,-0.01104624213272588362,0.69965925548717566862,0.00019074377038169257
X1005,X1005_8,102.06979331956966916550,58.48440265387182535051,36.00000000000000000000,0.01098688100823289222,0.01245652471765639098,78.53403141361256700748,95.50000000000000000000,0.93349015339241581124,79.00000000000000000000,0.87060813033125650229,28.00000000000000000000,0.85569910256166126228,19.00000000000000000000,0.84517321770545161819,14.00000000000000000000,0.74579296536141392870,11.00000000000000000000,2.05882352941176449690,0.58823529411764707842,0.58823529411764685637,0.58823529411764718944,1.17647058823529437888,2.53968253968253954156,0.95238095238095232808,3.01587301587301492845,1.11111111111111138250,0.31746031746031749821,0.31746031746031716514,0.31746031746031749821,0.31746031746031749821,0.31746031746031749821,0.79365079365079382878,17.00000000000000000000,0.00000000000000000000,0.88235294117647056211,0.88235294117647022905,1.17647058823529437888,2.05882352941176494099,1.74603174603174604584,0.79365079365079360674,3.96825396825396703449,1.90476190476190532230,1.58730158730158765756,0.00000000000000000000,0.00000000000000000000,0.00000000000000000000,0.00000000000000000000,0.00000000000000000000,10.00000000000000000000,0.88235294117647056211,0.58823529411764707842,0.29411764705882342819,1.17647058823529437888,2.05882352941176494099,0.31746031746031744269,0.15873015873015872135,0.31746031746031733167,0.15873015873015874910,1.58730158730158765756,4.92063492063491647599,1.26984126984126999282,1.26984126984126999282,0.00000000000000000000,0.00000000000000000000,6.00000000000000000000,1.47058823529411775155,0.58823529411764707842,0.88235294117647022905,0.29411764705882359472,1.76470588235294156831,0.00000000000000000000,0.00000000000000000000,0.00000000000000000000,0.00000000000000000000,0.79365079365079382878,0.63492063492063433028,3.80952380952381064461,3.49206349206349297987,0.47619047619047633058,0.79365079365079382878,21.00000000000000000000,1.17647058823529415683,0.88235294117647056211,0.58823529411764685637,1.47058823529411797360,0.88235294117647078416,0.00000000000000000000,0.00000000000000000000,0.00000000000000000000,1.11111111111111138250,3.65079365079365159019,3.65079365079364759339,1.11111111111111138250,0.15873015873015874910,0.15873015873015874910,0.15873015873015874910,16.00000000000000000000,-0.00461455166650145444,-0.01713569796987964716,-0.09500119844515693412,-0.17885812512717252920,-0.22536816101599216333,-0.17120880027073132057,-0.01403027877690406731,0.03154993819366845587,0.13867549716347238320,0.28143240614530501409,0.41914257588028752677,0.55037900901584524416,0.61990385632915345759,0.62769029568674095110,0.55830762643585929439,0.50233175764101312133,0.48375786491720473848,0.53416189483821063799,0.59346151739323860230,0.68228764758232218757,0.74993703464878069820,0.82015864776222291432,0.85760015491755492434,0.91527568086992361351,0.93855788817358321019,0.20052243676883649282,0.76800000000000001599,0.17199999999999998623,0.59599999999999997424,0.09800000000000000377,0.05809756400862692294,0.24199999999999999289,-0.02779120487120689820,0.41599999999999998090,0.50263999805565207080,0.00863916118461204030,0.24399999999999999467,0.35199999999999997957,1.96138765807928638907,0.22395871414296505963,0.77604128585703491261,0.12758590511387177258,0.31531120593963324339,0.54171291772739449399,0.31775420358442951763,0.45828708227260539498,0.17199999999999998623,0.22395871414296505963,0.58799999999999996714,0.76561956480798332159,0.76000000000000000888,0.98957827895094840898,3.41883116883116855433,0.09600000000000000200,0.12506065258861925882,0.21800000000000002709,0.28209158928614946893,0.31400000000000000133,0.40715224187476872775,2.27083333333333303727,0.05800000000000000294,0.07552936693099009113,0.08799999999999999489,0.11463893153956764004,0.14599999999999999090,0.19016829847055771729,1.52232142857142860315,0.84918489368346605772,4.27611973697321090526,10.27155469123820097366,4.08499864379526833602,5.12530463065667696299,14.35655333503347108604,0.16619068989865587449,0.83380931010134418102,0.71481193415962152038,0.28518806584037853513,0.26267922328965104262,0.73732077671034901289,0.94369665265541291532,0.37188539136035553279,0.00750355887895741425,-0.00917514381871201157,-0.00748779438466198877,-0.00634085025834971172,0.00321980911789383761,0.47331332936820985635,0.97410023491369424065,0.98147933296456435492,0.97107070055527233698,0.47939054433097499919,-1.22416711458815652414,-1.00166603954672006616,-0.84895760307046985726,0.43152303529920615910,2.05921336175194591434,2.07502870004410278071,2.05302152212377153617,1.01328876030737102809,0.05399999999999999939,0.08799999999999999489,0.02199999999999999872,0.00800000000000000017,0.18599999999999999867,0.07029247287527612409,0.11463893153956764004,0.02860558867906970448,0.01042172104905160317,0.24214258177298317309,0.11799999999999999378,0.02999999999999999889,-0.00800000000000000017,0.00000000000000000000,0.18599999999999999867,0.15366624126768896330,0.03902730972812130938,-0.01042172104905160317,0.00000000000000000000,0.24214258177298317309,0.19493349272982737896,-0.00774270373078287354,0.62645652802903362133,0.00050334282749684160
X1005,X1005_9,101.69675301329836258901,59.08954226497147033115,39.00000000000000000000,0.01414071362616555090,0.00919235861193420066,81.52173913043478137297,92.00000000000000000000,0.93701186209434050856,1.00000000000000000000,0.88356174580766189131,29.00000000000000000000,0.87065214138365920604,19.00000000000000000000,0.84880116467850075246,14.00000000000000000000,0.75363905637713657359,10.00000000000000000000,2.22222222222222232091,0.55555555555555558023,0.55555555555555535818,0.55555555555555569125,1.11111111111111138250,2.25806451612903247295,1.12903225806451623647,2.90322580645161210100,1.12903225806451645852,0.48387096774193560922,0.32258064516129003607,0.32258064516129036914,0.32258064516129036914,0.32258064516129036914,0.80645161290322608938,18.00000000000000000000,0.00000000000000000000,0.83333333333333337034,1.11111111111111071637,0.83333333333333348136,2.22222222222222276500,1.93548387096774199279,0.64516129032258062725,4.51612903225806228136,1.61290322580645217876,1.29032258064516147655,0.00000000000000000000,0.00000000000000000000,0.00000000000000000000,0.00000000000000000000,0.00000000000000000000,11.00000000000000000000,0.83333333333333337034,0.55555555555555558023,0.27777777777777767909,1.38888888888888928363,1.94444444444444486386,0.32258064516129031363,0.32258064516129031363,0.16129032258064510130,0.32258064516129036914,2.09677419354838745491,4.51612903225806050500,1.12903225806451645852,1.12903225806451645852,0.00000000000000000000,0.00000000000000000000,7.00000000000000000000,1.38888888888888883955,0.83333333333333337034,0.55555555555555535818,0.27777777777777784562,1.94444444444444486386,0.00000000000000000000,0.00000000000000000000,0.00000000000000000000,0.00000000000000000000,0.80645161290322608938,0.48387096774193510962,2.90322580645161343327,4.35483870967741992786,0.48387096774193560922,0.96774193548387121844,22.00000000000000000000,1.38888888888888883955,0.55555555555555558023,0.83333333333333303727,1.38888888888888928363,0.83333333333333348136,0.00000000000000000000,0.00000000000000000000,0.00000000000000000000,0.96774193548387121844,3.22580645161290435752,4.19354838709677046893,1.12903225806451645852,0.16129032258064518457,0.16129032258064518457,0.16129032258064518457,17.00000000000000000000,-0.00142431712865896893,-0.02282054805263181510,-0.10434589238482497309,-0.19130585523703350082,-0.22989115247304106604,-0.15883035270981857301,-0.00820983596621491230,0.03616333218226370355,0.13830668386923972157,0.27960813563737285659,0.41769624195617377493,0.55638665321056746116,0.64487095989596476819,0.67901194399707809346,0.62584347736865386658,0.56100455215846867230,0.51581701177928418467,0.54102630390819372863,0.58682353317695046258,0.67002916039779347734,0.73906656018365723959,0.81220555658967208412,0.85098815564812713141,0.90484588609451677144,0.92569305517791133919,0.22811398145724298692,0.74199999999999999289,0.16600000000000000866,0.57599999999999995648,0.09199999999999999845,0.07829947613232277059,0.23599999999999998757,-0.03665136564657425766,0.40799999999999997380,0.31189792181119652126,0.01102459098325224429,0.24199999999999999289,0.33400000000000001910,3.06402196494302003771,0.22371572021127389407,0.77628427978872605042,0.12401338366506520217,0.31812812708264948114,0.54985116827310442922,0.32613544806183042413,0.45014883172689562629,0.10200000000000000733,0.13745548725294182146,0.38400000000000000799,0.51758999532491822837,0.48599999999999998757,0.65504548257785999432,3.76923076923076916245,0.07199999999999999456,0.09704276207812359556,0.12199999999999999734,0.16439751126495777411,0.19400000000000000577,0.26144027334308139743,1.69444444444444441977,0.04800000000000000100,0.06469517471874906833,0.06999999999999999278,0.09432537077377577128,0.11799999999999999378,0.15902054549252486737,1.45833333333333325932,1.06067005299469041546,5.69489763952081595733,13.77121000374371817543,5.50658662576254265275,6.75556769251550637279,19.27779662950625905182,0.15769260484038863379,0.84230739515961139396,0.71369985794649670741,0.28630014205350329259,0.25960150889045391365,0.74039849110954614186,0.90328324908708623742,0.38433666097061525146,0.01018230567268742226,-0.01215766245477781227,-0.00977249441357946891,-0.00824958970227065991,0.00436729967833118793,0.25433962537163545825,0.93986653638902362129,0.94964431415439731765,0.93617623829101903610,0.28504009302561938988,-1.19438594150570964736,-0.96065128524058596149,-0.81110523864459782573,0.43029330757632877624,3.70409792102532797742,3.74273210970472280934,3.69001039014470588739,1.12243929890065530230,0.04600000000000000616,0.08999999999999999667,0.02200000000000000219,0.00800000000000000017,0.18599999999999999867,0.06197778341440123712,0.12132521162205445187,0.02963019605502670642,0.01078252911979151081,0.25065774422328984672,0.11999999999999999556,0.02999999999999999889,-0.00800000000000000017,0.00000000000000000000,0.18599999999999999867,0.16173793679687267777,0.04041272517481821897,-0.01078252911979151081,0.00000000000000000000,0.25065774422328984672,0.14707727480314530810,-0.01012617740071602296,0.57737058237947402883,0.00045172756182767186
X1005,X1005_10,100.04249835605573082375,57.81732468078014619550,39.00000000000000000000,0.01434613089655333712,0.00595203355466752178,79.78723404255319451295,94.00000000000000000000,0.93529819616710574426,2.00000000000000000000,0.87994288752824156852,29.00000000000000000000,0.86931084546165493521,19.00000000000000000000,0.85400633713332962937,14.00000000000000000000,0.74499875088562073078,10.00000000000000000000,1.94444444444444441977,0.83333333333333337034,0.55555555555555535818,0.55555555555555569125,1.11111111111111138250,2.58064516129032250902,1.45161290322580649459,3.22580645161290213707,0.32258064516129036914,0.32258064516129036914,0.32258064516129003607,0.32258064516129036914,0.32258064516129036914,0.48387096774193560922,0.64516129032258073828,18.00000000000000000000,0.00000000000000000000,0.55555555555555558023,1.38888888888888839546,1.11111111111111138250,1.94444444444444486386,1.93548387096774199279,0.80645161290322575631,4.19354838709677224529,1.77419354838709719679,1.12903225806451645852,0.16129032258064501804,0.00000000000000000000,0.00000000000000000000,0.00000000000000000000,0.00000000000000000000,11.00000000000000000000,1.11111111111111116045,0.27777777777777779011,0.55555555555555535818,1.11111111111111138250,1.94444444444444486386,0.32258064516129031363,0.16129032258064515681,0.16129032258064510130,0.32258064516129036914,1.77419354838709719679,4.67741935483870552304,1.12903225806451645852,1.45161290322580671663,0.00000000000000000000,0.00000000000000000000,7.00000000000000000000,1.38888888888888883955,0.55555555555555558023,0.55555555555555535818,0.55555555555555569125,1.94444444444444486386,0.00000000000000000000,0.00000000000000000000,0.00000000000000000000,0.00000000000000000000,0.64516129032258073828,0.64516129032258007214,3.22580645161290435752,4.03225806451612989179,0.64516129032258073828,0.80645161290322608938,21.00000000000000000000,1.38888888888888883955,0.55555555555555558023,0.55555555555555535818,1.38888888888888928363,1.11111111111111138250,0.00000000000000000000,0.00000000000000000000,0.00000000000000000000,0.96774193548387121844,3.87096774193548487375,3.70967741935483541482,1.12903225806451645852,0.16129032258064518457,0.00000000000000000000,0.16129032258064518457,16.00000000000000000000,-0.00300969486954851548,-0.02365889529925649729,-0.11315418669231558368,-0.20046099077472162575,-0.24391001562552819260,-0.17555545794310095653,-0.01078880471053663206,0.03857126816317951734,0.15122955861742554129,0.30489879388931551141,0.45632181299570173660,0.60319226157418304179,0.68918908947600010517,0.71082717742489975876,0.64409903366846477102,0.57620526068337452053,0.53905029639623902593,0.57399889695297412473,0.62407475723461403039,0.70911498184736099226,0.77783246455471144465,0.84892321155902017438,0.88540208841467582523,0.93990904285071008584,0.95812840683411581999,0.21118981500293312892,0.75200000000000000178,0.16800000000000001044,0.58400000000000007461,0.09600000000000000200,0.08198837784898914405,0.24159999999999998144,-0.03959651758049291537,0.41280000000000000027,0.22444828651027673438,0.01240874751189057802,0.24479999999999998983,0.33919999999999994600,4.06597003796910705375,0.22347607459729518231,0.77652392540270476218,0.12770061405559726686,0.32135679829688790221,0.54902193597742310338,0.32554586138012792107,0.45097806402257684111,0.09119999999999998941,0.12136196157332776457,0.17280000000000000915,0.22967832839053442529,0.26400000000000001243,0.35104028996386216210,1.90303030303030307202,0.06720000000000000973,0.08943680805942844092,0.11199999999999998845,0.14889197728363462447,0.17919999999999997042,0.23832878534306306539,1.67777777777777781232,0.04320000000000000229,0.05751165454552913114,0.06720000000000000973,0.08934473561153291610,0.11040000000000001201,0.14685639015706206112,1.57333333333333325044,1.15671106336942441928,5.77679173791338751442,14.24694272518074100731,5.48464826071526800888,6.93350280128281148961,19.73159098589600901619,0.16650198558771758806,0.83349801441228232868,0.72134068121349259606,0.27865931878650745945,0.26045034499396285677,0.73954965500603708772,0.95241303463635951232,0.37397652987229362820,0.01064170896936779062,-0.01284177914935398165,-0.01061154794013421422,-0.00901880543304880468,0.00464635578074698054,0.16986356387036533055,0.89135739803857205743,0.90747236115205076601,0.89407599803886905754,0.19077117617962943696,-1.20733057517269459780,-0.99740262550148273135,-0.84764425454524672254,0.43783752489675820119,5.29503421106779370575,5.39469597910984255407,5.31622645235010793385,1.13980828515947307800,0.04800000000000000100,0.08959999999999998521,0.02240000000000000324,0.00800000000000000017,0.18879999999999999560,0.06385030702779863343,0.11918655579209891382,0.02979749393943122854,0.01064171783796643775,0.25109816275549762254,0.11999999999999999556,0.03039999999999999994,-0.00800000000000000017,0.00000000000000000000,0.18879999999999999560,0.15962576756949659051,0.04043921177739766282,-0.01064171783796643775,0.00000000000000000000,0.25109816275549762254,0.19987877997727657164,-0.01096743319033946333,0.63771630487403485610,0.00030267262658144751
X1005,X1005_11,102.94238388543891460358,59.50865900058520452376,38.00000000000000000000,0.02156277857030054410,0.01210330407971083738,77.31958762886598890418,97.00000000000000000000,0.93475443498129706654,2.00000000000000000000,0.87270839015486223467,28.00000000000000000000,0.85366197086959660911,19.00000000000000000000,0.85459199910755323515,14.00000000000000000000,0.74187754063920041681,10.00000000000000000000,1.94444444444444441977,0.83333333333333337034,0.27777777777777767909,0.55555555555555569125,1.38888888888888928363,2.74193548387096752705,0.96774193548387099639,3.06451612903225711904,0.96774193548387121844,0.32258064516129036914,0.32258064516129003607,0.32258064516129036914,0.32258064516129036914,0.32258064516129036914,0.64516129032258073828,18.00000000000000000000,0.00000000000000000000,0.83333333333333337034,1.11111111111111071637,0.83333333333333348136,2.22222222222222276500,1.77419354838709675271,0.80645161290322575631,4.35483870967741726332,1.61290322580645217876,1.45161290322580671663,0.00000000000000000000,0.00000000000000000000,0.00000000000000000000,0.00000000000000000000,0.00000000000000000000,11.00000000000000000000,1.11111111111111116045,0.27777777777777779011,0.55555555555555535818,1.11111111111111138250,1.94444444444444486386,0.16129032258064515681,0.32258064516129031363,0.16129032258064510130,0.16129032258064518457,1.93548387096774243687,4.83870967741935054107,1.12903225806451645852,1.29032258064516147655,0.00000000000000000000,0.00000000000000000000,6.00000000000000000000,1.38888888888888883955,0.55555555555555558023,0.55555555555555535818,0.83333333333333348136,1.66666666666666696273,0.00000000000000000000,0.00000000000000000000,0.00000000000000000000,0.00000000000000000000,0.80645161290322608938,0.64516129032258007214,3.06451612903225845130,4.03225806451612989179,0.64516129032258073828,0.80645161290322608938,21.00000000000000000000,1.38888888888888883955,0.55555555555555558023,0.83333333333333303727,1.11111111111111138250,1.11111111111111138250,0.00000000000000000000,0.00000000000000000000,0.00000000000000000000,1.29032258064516147655,3.54838709677419439359,3.70967741935483541482,1.12903225806451645852,0.16129032258064518457,0.16129032258064518457,0.00000000000000000000,16.00000000000000000000,-0.00326216594985521708,-0.02392282517443777845,-0.11391701098386790292,-0.20470695724642160029,-0.24946325273474861950,-0.18485951778163220438,-0.01271438252794431303,0.03772600233392430641,0.15320490298909955618,0.30790184170720397150,0.45908062121478432349,0.60040124189693411250,0.67154949879973258042,0.67460051917713936831,0.60036979908618914870,0.54304863127858793437,0.52660793284095230860,0.58053334432341308080,0.64286170571554523967,0.73318044736707577158,0.80139830615909568579,0.86872514974171199942,0.89947071701611391870,0.94712044890430391320,0.95984856770074766796,0.18815917998267245315,0.77000000000000001776,0.17199999999999998623,0.59799999999999997602,0.09600000000000000200,0.06289842742450335589,0.24399999999999999467,-0.03001009828700174076,0.41399999999999997913,0.43963942480043138872,0.00902581034791920256,0.24199999999999999289,0.35599999999999998312,2.18922511716560475037,0.22340095029239764868,0.77659904970760229581,0.12471092503987241118,0.31690673179160022688,0.53770351541733119038,0.31430256512493359722,0.46229648458266880962,0.17199999999999998623,0.22340095029239764868,0.58999999999999996891,0.76620647262094632168,0.76200000000000001066,0.98960742291334402587,3.43181818181818210078,0.08799999999999999489,0.11431834795321636766,0.15200000000000002398,0.19727372408293461503,0.23999999999999999112,0.31159207203615096882,1.72727272727272729291,0.05600000000000000117,0.07274803960659223523,0.08199999999999998956,0.10645102339181286566,0.13800000000000001155,0.17919906299840510089,1.46428571428571419055,0.85985429852609995827,4.76263732288000962711,11.09802408204313906026,4.46424037378431748380,5.62249162140610891925,15.56226445582745654406,0.15303361255760836168,0.84696638744239161056,0.71246226215332708609,0.28753773784667291391,0.26557341011824048271,0.73442658988175957280,0.93085318452633880604,0.37502605486068002483,0.00807498761039818214,-0.00979389357678697725,-0.00787712583316238502,-0.00664544193647823023,0.00346329071212272965,0.40104900906435791974,0.95119967358734780483,0.95693446116344549335,0.94523461622098281509,0.41629662101067721469,-1.21332116382002652699,-0.97537410047507377975,-0.82270294355467921132,0.42950353944421232333,2.37380471205988907712,2.38822860914150059131,2.35913612865387367634,1.03907594237642442181,0.05200000000000000455,0.08999999999999999667,0.02199999999999999872,0.00800000000000000017,0.18399999999999999689,0.06751229399255714858,0.11692251461988303896,0.02857356459330143497,0.01039257708665603484,0.23902927299308879272,0.11999999999999999556,0.02999999999999999889,-0.00800000000000000017,0.00000000000000000000,0.18399999999999999689,0.15588865629984050010,0.03896614167995746808,-0.01039257708665603484,0.00000000000000000000,0.23902927299308879272,0.15525234076551439055,-0.00816013936154342395,0.58475588020972668613,0.00060127616969344775
X1005,X1005_12,106.08754469297498701508,62.63011179539191886079,36.00000000000000000000,0.01769217430237587235,0.01374937479084126397,74.62686567164178086387,100.50000000000000000000,0.92375187476662612429,3.00000000000000000000,0.85810708737381913291,28.00000000000000000000,0.84972002329052609415,19.00000000000000000000,0.83575486938927112668,14.00000000000000000000,0.75225136801577741075,11.00000000000000000000,2.05882352941176449690,0.58823529411764707842,0.58823529411764685637,0.58823529411764718944,1.17647058823529437888,3.17460317460317442695,0.95238095238095232808,2.06349206349206237832,1.58730158730158765756,0.31746031746031749821,0.31746031746031716514,0.31746031746031749821,0.31746031746031749821,0.31746031746031749821,0.63492063492063499641,17.00000000000000000000,0.00000000000000000000,0.88235294117647056211,0.88235294117647022905,1.17647058823529437888,2.05882352941176494099,1.74603174603174604584,0.63492063492063488539,3.01587301587301492845,3.49206349206349297987,1.11111111111111138250,0.00000000000000000000,0.00000000000000000000,0.00000000000000000000,0.00000000000000000000,0.00000000000000000000,10.00000000000000000000,1.17647058823529415683,0.29411764705882353921,0.29411764705882342819,1.17647058823529437888,2.05882352941176494099,0.31746031746031744269,0.15873015873015872135,0.15873015873015866584,0.31746031746031749821,1.74603174603174648993,5.07936507936507464223,1.11111111111111138250,1.11111111111111138250,0.00000000000000000000,0.00000000000000000000,6.00000000000000000000,1.17647058823529415683,0.58823529411764707842,0.58823529411764685637,0.88235294117647078416,1.76470588235294156831,0.00000000000000000000,0.00000000000000000000,0.00000000000000000000,0.00000000000000000000,0.63492063492063499641,0.63492063492063433028,3.80952380952381064461,3.49206349206349297987,0.63492063492063499641,0.79365079365079382878,20.00000000000000000000,1.47058823529411775155,0.58823529411764707842,0.88235294117647022905,1.17647058823529437888,0.88235294117647078416,0.00000000000000000000,0.00000000000000000000,0.00000000000000000000,0.79365079365079382878,3.33333333333333436954,4.44444444444444108910,1.11111111111111138250,0.15873015873015874910,0.00000000000000000000,0.15873015873015874910,15.00000000000000000000,-0.00275230750145989212,-0.01997431609572263358,-0.10946712879647087224,-0.21120567026319037041,-0.26211409085082049142,-0.20706666255783273689,-0.01506826561107452167,0.04227326509856331460,0.16854029337907083796,0.32897881948826690479,0.47794565256228349615,0.60577505247324858750,0.64670899584920837899,0.61269355748863252309,0.53480239112867045126,0.51703519443772782971,0.54682597240987440568,0.63219616475928930299,0.71362192578908012486,0.80110999785892622604,0.85111507428785271312,0.90360177327072133124,0.91709028485370658323,0.94349722547932923788,0.94715557616078993597,0.17174932436436254890,0.80800000000000005151,0.16960000000000000075,0.63840000000000007851,0.09759999999999999232,0.08457080859627105762,0.23999999999999999112,-0.03892007146411784191,0.40960000000000001963,0.26957404895690073587,0.01088830395758486579,0.23999999999999999112,0.39839999999999997637,3.50306632406195017637,0.20995316961736149031,0.79004683038263845418,0.12083038263849228688,0.29713420902341519669,0.50693165810013329775,0.29697848848277175193,0.49306834189986670225,0.09439999999999999780,0.11686959832476680188,0.31199999999999999956,0.38576965543498953348,0.40639999999999998348,0.50263925375975637699,3.31666666666666731800,0.06880000000000000004,0.08516200266514371842,0.11519999999999999685,0.14253797829811537534,0.18399999999999999689,0.22769998096325907988,1.68055555555555580227,0.04640000000000000374,0.05745440700552065932,0.06720000000000000973,0.08312278697886922585,0.11359999999999999265,0.14057719398438989211,1.45999999999999974243,1.22736823157438057486,6.01998418898331522087,15.24554563392290695845,6.39755312831558864417,7.24735242055769468550,21.64309876223850181987,0.16911934352254950897,0.83088065647745035225,0.70368366611361010676,0.29631633388638989324,0.25123412077753759508,0.74876587922246240492,0.93902195091047979680,0.36888032497771605644,0.01092591083117868886,-0.01312138647746012923,-0.01069156593901185968,-0.00905323992560955713,0.00468827110551046054,0.19308991251840529335,0.92467988481245699806,0.93949582140290355259,0.92577166890384565701,0.24182129375048497244,-1.20135175431023299986,-0.97866612848630940569,-0.82871557379572213797,0.43058027037630319800,4.83342463949122169709,4.91386368385479954668,4.84193127229841735470,1.26646960911575168218,0.05120000000000000245,0.08799999999999999489,0.02239999999999999977,0.00800000000000000017,0.18400000000000002465,0.06337597563297163450,0.10892785075195125788,0.02774681134589758111,0.00990253188654102376,0.22766076527698456133,0.11839999999999999136,0.03039999999999999994,-0.00800000000000000017,0.00000000000000000000,0.18400000000000002465,0.14657719398438989744,0.03764934323243861181,-0.00990253188654102376,0.00000000000000000000,0.22766076527698456133,0.17544967759549537356,-0.01106882824715971908,0.60602994797179854380,0.00033152440432358680
X1005,X1005_13,103.98483062482016237027,61.53138687770377401876,37.00000000000000000000,0.01610825270644093005,0.00976781986665806873,75.75757575757575068565,99.00000000000000000000,0.91763019387280930772,3.00000000000000000000,0.86649400842322044092,28.00000000000000000000,0.84605508712507460078,19.00000000000000000000,0.86737959656760676985,15.00000000000000000000,0.74409612548629122664,11.00000000000000000000,2.05882352941176449690,0.58823529411764707842,0.58823529411764685637,0.58823529411764718944,1.17647058823529437888,3.01587301587301581662,0.95238095238095232808,2.38095238095238004306,1.42857142857142882519,0.31746031746031749821,0.31746031746031716514,0.31746031746031749821,0.31746031746031749821,0.31746031746031749821,0.63492063492063499641,17.00000000000000000000,0.00000000000000000000,0.88235294117647056211,0.88235294117647022905,1.17647058823529437888,2.05882352941176494099,1.74603174603174604584,0.47619047619047616404,3.33333333333333259318,3.17460317460317531513,1.26984126984126999282,0.00000000000000000000,0.00000000000000000000,0.00000000000000000000,0.00000000000000000000,0.00000000000000000000,10.00000000000000000000,1.17647058823529415683,0.29411764705882353921,0.29411764705882342819,1.47058823529411797360,1.76470588235294156831,0.31746031746031744269,0.15873015873015872135,0.15873015873015866584,0.31746031746031749821,1.58730158730158765756,5.23809523809523369664,1.11111111111111138250,1.11111111111111138250,0.00000000000000000000,0.00000000000000000000,6.00000000000000000000,1.47058823529411775155,0.58823529411764707842,0.58823529411764685637,0.58823529411764718944,1.76470588235294156831,0.00000000000000000000,0.00000000000000000000,0.00000000000000000000,0.00000000000000000000,0.47619047619047633058,0.63492063492063433028,4.44444444444444553000,3.17460317460317531513,0.47619047619047633058,0.79365079365079382878,20.00000000000000000000,1.47058823529411775155,0.58823529411764707842,0.58823529411764685637,1.47058823529411797360,0.88235294117647078416,0.00000000000000000000,0.00000000000000000000,0.00000000000000000000,0.95238095238095266115,3.65079365079365159019,3.80952380952380620371,1.11111111111111138250,0.15873015873015874910,0.15873015873015874910,0.15873015873015874910,16.00000000000000000000,-0.00313389535666346941,-0.02448114358341223901,-0.11884981975796120313,-0.21800925312348856666,-0.26364946547390594178,-0.19766245211181382446,-0.00727706062132729009,0.06380040466880051997,0.19600292175277542195,0.35722827668930801082,0.50482410469871785708,0.63073693207163850083,0.66909509653115528671,0.63366960292447505054,0.54817548893570378077,0.51474322749090895002,0.53259901516117424958,0.61309598099497952806,0.69083263829692032054,0.78113060435270254001,0.83886797307456340000,0.89455891194344805406,0.91304518456618777300,0.94910031377955517140,0.95462597649038660741,0.18781769649101190400,0.79400000000000003908,0.16600000000000000866,0.62800000000000000266,0.09400000000000000022,0.08717169847000579008,0.23400000000000001354,-0.04102581213329653531,0.40999999999999997558,0.26784393574252240988,0.01224109503371266505,0.24399999999999999467,0.38400000000000000799,3.62298272678092736498,0.20915869441836140719,0.79084130558163856506,0.11842595949270796896,0.29496520142710547230,0.51652737208744881059,0.30736867766908743116,0.48347262791255113390,0.08999999999999999667,0.11337081243388444363,0.26000000000000000888,0.32516614318994924160,0.34999999999999997780,0.43853695562383371298,2.87121212121212110446,0.06600000000000000311,0.08312656745866663088,0.11599999999999999201,0.14606603780125912428,0.18199999999999999512,0.22919260525992574129,1.76041666666666674068,0.04599999999999999922,0.05793746954227235735,0.06400000000000000133,0.08065131993391415344,0.11000000000000000056,0.13858878947618652466,1.39999999999999991118,1.19779088223945096026,6.11492949357698911683,15.63459094235711788201,6.38412923592504633064,7.31272037581643985504,22.01872017828216598900,0.16373007662519289962,0.83626992337480698936,0.70950731391032506590,0.29049268608967487859,0.24937412946019613114,0.75062587053980389662,0.94305738162368768496,0.36657179727399596958,0.01126265438262320784,-0.01367304327703031119,-0.01157960984147057837,-0.00994191541184971661,0.00482366334141879488,0.18771433414216065483,0.94738976197279856084,0.96666168735858204464,0.95319129709566885467,0.23318596948515418754,-1.21486470323514406111,-1.03024307048792063135,-0.88501553113727804423,0.43058353046990061053,5.09170880956075766477,5.19715628522702832726,5.12405667477751336492,1.25883356563486725754,0.04800000000000000100,0.08799999999999999489,0.02199999999999999872,0.00800000000000000017,0.18599999999999999867,0.06048848995043561855,0.11089556490913196618,0.02769322456705454460,0.01008141499173926918,0.23424775231874928050,0.11799999999999999378,0.02999999999999999889,-0.00800000000000000017,0.00000000000000000000,0.18599999999999999867,0.14867020446792578170,0.03777463955879381552,-0.01008141499173926918,0.00000000000000000000,0.23424775231874928050,0.26981036792015394843,-0.01190545207963769440,0.70039389839005461447,0.00018119652680930013
X1005,X1005_14,107.23157605053805241369,63.80204753963636221670,39.00000000000000000000,0.01026790954271434436,0.00574414611883580003,78.94736842105263008307,95.00000000000000000000,0.92722833664854642510,79.00000000000000000000,0.87268769333650875186,29.00000000000000000000,0.86061235186272644349,19.00000000000000000000,0.86737628919207077072,14.00000000000000000000,0.76770942898025229528,11.00000000000000000000,1.94444444444444441977,0.83333333333333337034,0.55555555555555535818,0.55555555555555569125,1.11111111111111138250,2.58064516129032250902,0.96774193548387099639,1.93548387096774132665,1.93548387096774243687,0.48387096774193560922,0.32258064516129003607,0.32258064516129036914,0.32258064516129036914,0.48387096774193560922,0.64516129032258073828,18.00000000000000000000,0.00000000000000000000,0.83333333333333337034,1.11111111111111071637,1.11111111111111138250,1.94444444444444486386,1.93548387096774199279,0.64516129032258062725,4.99999999999999822364,1.45161290322580671663,0.96774193548387121844,0.00000000000000000000,0.00000000000000000000,0.00000000000000000000,0.00000000000000000000,0.00000000000000000000,11.00000000000000000000,1.11111111111111116045,0.27777777777777779011,0.55555555555555535818,1.11111111111111138250,1.94444444444444486386,0.32258064516129031363,0.16129032258064515681,0.16129032258064510130,0.16129032258064518457,1.61290322580645217876,5.16129032258064057714,1.45161290322580671663,0.96774193548387121844,0.00000000000000000000,0.00000000000000000000,6.00000000000000000000,1.38888888888888883955,0.55555555555555558023,0.55555555555555535818,0.83333333333333348136,1.66666666666666696273,0.00000000000000000000,0.00000000000000000000,0.00000000000000000000,0.00000000000000000000,0.80645161290322608938,0.64516129032258007214,3.54838709677419439359,3.70967741935483941162,0.32258064516129036914,0.96774193548387121844,21.00000000000000000000,1.38888888888888883955,0.55555555555555558023,0.83333333333333303727,1.11111111111111138250,1.11111111111111138250,0.00000000000000000000,0.00000000000000000000,0.00000000000000000000,1.29032258064516147655,4.19354838709677490982,3.22580645161290036071,0.96774193548387121844,0.00000000000000000000,0.16129032258064518457,0.16129032258064518457,16.00000000000000000000,-0.00503321755306611936,-0.01947160973727534231,-0.10132279120435463970,-0.18621951105754411260,-0.22985919486251230048,-0.17250944723850167306,-0.01419535707012161384,0.02922835821414178012,0.12990922584515396387,0.26119912340732431844,0.38709155697126274021,0.50915288955157933515,0.57034999764627658525,0.57311051793528355880,0.50878238669887165813,0.46657423539296483117,0.46290249267173394498,0.52551772305956556686,0.59533379238794492672,0.69066871973689303310,0.75870068633961529336,0.82450429628793653336,0.85666953780333154889,0.90794729110374894354,0.92672182540084302449,0.21554995329202142340,0.76800000000000001599,0.16800000000000001044,0.59999999999999997780,0.09439999999999999780,0.06108218907580524604,0.23039999999999999369,-0.02753656161197677241,0.40960000000000001963,0.48911132092041764707,0.00686285553072986127,0.24159999999999998144,0.35839999999999994085,2.01473672846565010630,0.21899969713285769024,0.78100030286714228200,0.12318189976219322268,0.30053601875532820475,0.53387109077040428851,0.31487139363754657051,0.46612890922959576701,0.16800000000000001044,0.21899969713285769024,0.54719999999999990870,0.71566978507650191865,0.71520000000000005791,0.93466948220935963665,3.25714285714285711748,0.08959999999999998521,0.11688804011307038500,0.21119999999999997109,0.27587377170547855432,0.30080000000000001181,0.39276181181854896707,2.36969696969697007916,0.05600000000000000810,0.07299989904428590137,0.08640000000000000457,0.11268469287028312631,0.14239999999999999880,0.18568459191456904156,1.54285714285714292693,1.43396519849425274629,4.96156099372093262190,12.85719261727013851271,5.96978427040008785553,6.39552619221518448001,18.82697688767022370371,0.20233174518639046591,0.79766825481360958960,0.69301893638643063955,0.30698106361356936045,0.25142809797618215217,0.74857190202381773680,0.76372450722854856586,0.40108308994894370514,0.00787862783152840605,-0.00952897724098367149,-0.00796285546921899831,-0.00678320193942643073,0.00322016827524856941,0.42759354564956258971,0.96987191477951595342,0.97807963475264902975,0.96794794849632415090,0.47282084101783439234,-1.21004038859644280635,-1.01213225945617768531,-0.86246871617993203785,0.41131164306639744765,2.27537187429568366070,2.29434515640067671072,2.27036231082981654339,1.10759015613717748394,0.04800000000000000100,0.09119999999999998941,0.02080000000000000251,0.00800000000000000017,0.18399999999999999689,0.06269389105756720260,0.11878017454121236884,0.02709707452775160161,0.01042855700632655883,0.23969758154978237918,0.11999999999999999556,0.02879999999999999921,-0.00800000000000000017,0.00000000000000000000,0.18399999999999999689,0.15630580607529051540,0.03752563153407816043,-0.01042855700632655883,0.00000000000000000000,0.23969758154978237918,0.25324894397326930262,-0.00812898031438885268,0.66456058703966669476,0.00034498427313743379
X1005,X1005_15,100.77753360872011967331,57.72750159186911389497,34.00000000000000000000,0.01721714339547403966,0.01250850968462965777,79.78723404255319451295,94.00000000000000000000,0.93524990903199878289,2.00000000000000000000,0.87998863997360798894,29.00000000000000000000,0.86903520407475087772,19.00000000000000000000,0.84711325844832963128,14.00000000000000000000,0.74758170080255348378,10.00000000000000000000,2.22222222222222232091,0.55555555555555558023,0.55555555555555535818,0.55555555555555569125,1.11111111111111138250,2.41935483870967749098,0.96774193548387099639,3.06451612903225711904,1.12903225806451645852,0.32258064516129036914,0.32258064516129003607,0.32258064516129036914,0.32258064516129036914,0.32258064516129036914,0.80645161290322608938,18.00000000000000000000,0.00000000000000000000,0.83333333333333337034,1.11111111111111071637,1.11111111111111138250,1.94444444444444486386,1.93548387096774199279,0.64516129032258062725,4.19354838709677224529,1.77419354838709719679,1.45161290322580671663,0.00000000000000000000,0.00000000000000000000,0.00000000000000000000,0.00000000000000000000,0.00000000000000000000,11.00000000000000000000,0.83333333333333337034,0.55555555555555558023,0.27777777777777767909,1.38888888888888928363,1.94444444444444486386,0.32258064516129031363,0.16129032258064515681,0.32258064516129020260,0.16129032258064518457,1.77419354838709719679,4.83870967741935054107,1.29032258064516147655,1.12903225806451645852,0.00000000000000000000,0.00000000000000000000,7.00000000000000000000,1.38888888888888883955,0.83333333333333337034,0.55555555555555535818,0.55555555555555569125,1.66666666666666696273,0.00000000000000000000,0.00000000000000000000,0.00000000000000000000,0.00000000000000000000,0.64516129032258073828,0.80645161290322509018,3.22580645161290435752,4.03225806451612989179,0.48387096774193560922,0.80645161290322608938,21.00000000000000000000,1.11111111111111116045,0.83333333333333337034,0.83333333333333303727,1.38888888888888928363,0.83333333333333348136,0.00000000000000000000,0.00000000000000000000,0.00000000000000000000,1.12903225806451645852,4.19354838709677490982,3.22580645161290036071,0.96774193548387121844,0.16129032258064518457,0.16129032258064518457,0.16129032258064518457,17.00000000000000000000,0.00531555965761028142,-0.00899639362083042189,-0.07665584250467796790,-0.15963028146715177447,-0.20676995243323847973,-0.14792060794875136476,-0.00720444312834826218,0.04233851217554853580,0.15665059578501491777,0.30300651606382816849,0.45130861031286206853,0.59031451292668868369,0.67297594178397812659,0.68830627518645870477,0.62159177726558578758,0.55066799497951246511,0.51346817241208109195,0.54815209083148730418,0.60395055923168894374,0.68833194105116546346,0.76155152929913383364,0.83128398733062236481,0.87271924260996891487,0.91940040800514744035,0.94400251840758309108,0.21867244410321104442,0.75600000000000000533,0.16999999999999998446,0.58599999999999996536,0.09600000000000000200,0.08362766918095679292,0.23599999999999998757,-0.03907268538205457831,0.41199999999999997735,0.27402315139661875820,0.01203187478925898946,0.24199999999999999289,0.34400000000000002798,3.51392741205236003310,0.22502054176038244204,0.77497945823961766898,0.12708818852542536071,0.31233903516719263571,0.54508797821393850658,0.32006743645355606454,0.45491202178606149342,0.09600000000000000200,0.12703037168916264665,0.31199999999999999956,0.41114650253001205904,0.40800000000000002931,0.53817687421917470569,3.25000000000000000000,0.07199999999999999456,0.09527277876687198499,0.11399999999999999023,0.15069360753467253566,0.18599999999999999867,0.24596638630154449290,1.58333333333333348136,0.04800000000000000100,0.06351518584458132333,0.06600000000000000311,0.08717842169009122621,0.11399999999999999023,0.15069360753467253566,1.37500000000000000000,1.12460094834598534064,6.09110472769902333567,14.51722472412596331992,5.86972752287968724261,7.21570567604500912040,20.38695224700565233888,0.15639627121210455951,0.84360372878789535722,0.71092278978892431418,0.28907721021107574133,0.26174771697977788909,0.73825228302022205540,0.92627090966424718843,0.37594323578200417035,0.01081458974212680391,-0.01318693394584954937,-0.01067710994876761021,-0.00899012401822041340,0.00448818215751688870,0.21555103204384681859,0.94279724755252491963,0.95603130607049691125,0.94031038367736918815,0.24436452601543767749,-1.21979992930351688329,-0.98726984770925940715,-0.83123480099165980572,0.41624606451230650173,4.40569603219675087757,4.47148357615839930901,4.39905085081691815674,1.14615975865921471133,0.05000000000000000278,0.08799999999999999489,0.02400000000000000050,0.00800000000000000017,0.18599999999999999867,0.06623257714892914760,0.11644450738173242610,0.03175759292229066166,0.01058586430743021882,0.24596638630154449290,0.11999999999999999556,0.03200000000000000067,-0.00800000000000000017,0.00000000000000000000,0.18599999999999999867,0.15878796461145328056,0.04234345722972087528,-0.01058586430743021882,0.00000000000000000000,0.24596638630154449290,0.18245865488509568908,-0.01117717354088625104,0.59870471939740221856,0.00064284583511693195
X1005,X1005_16,99.40358944781343097929,57.29095662500787256022,39.00000000000000000000,0.01183409013007289540,0.00866629433295557777,78.53403141361256700748,95.50000000000000000000,0.93086314649479695582,3.00000000000000000000,0.86932505840262330743,29.00000000000000000000,0.85476442472482649926,19.00000000000000000000,0.85038112097620532914,14.00000000000000000000,0.73490046469633651949,11.00000000000000000000,2.22222222222222232091,0.55555555555555558023,0.55555555555555535818,0.55555555555555569125,1.11111111111111138250,2.41935483870967749098,0.96774193548387099639,2.90322580645161210100,1.29032258064516147655,0.32258064516129036914,0.32258064516129003607,0.32258064516129036914,0.32258064516129036914,0.32258064516129036914,0.80645161290322608938,18.00000000000000000000,0.00000000000000000000,0.83333333333333337034,1.11111111111111071637,1.11111111111111138250,1.94444444444444486386,1.77419354838709675271,0.80645161290322575631,4.67741935483870818757,1.12903225806451645852,1.61290322580645217876,0.00000000000000000000,0.00000000000000000000,0.00000000000000000000,0.00000000000000000000,0.00000000000000000000,11.00000000000000000000,1.11111111111111116045,0.27777777777777779011,0.27777777777777767909,1.38888888888888928363,1.94444444444444486386,0.32258064516129031363,0.16129032258064515681,0.32258064516129020260,0.16129032258064518457,1.93548387096774243687,4.67741935483870552304,1.12903225806451645852,1.29032258064516147655,0.00000000000000000000,0.00000000000000000000,7.00000000000000000000,1.38888888888888883955,0.55555555555555558023,0.83333333333333303727,0.27777777777777784562,1.94444444444444486386,0.00000000000000000000,0.00000000000000000000,0.00000000000000000000,0.00000000000000000000,0.80645161290322608938,0.48387096774193510962,2.74193548387096841523,4.51612903225806583407,0.64516129032258073828,0.80645161290322608938,22.00000000000000000000,1.38888888888888883955,0.83333333333333337034,0.55555555555555535818,1.38888888888888928363,0.83333333333333348136,0.00000000000000000000,0.00000000000000000000,0.00000000000000000000,1.12903225806451645852,3.70967741935483941162,3.54838709677419039679,1.12903225806451645852,0.16129032258064518457,0.16129032258064518457,0.16129032258064518457,17.00000000000000000000,-0.00210080221294337488,-0.02455066412560457170,-0.10816030934878759218,-0.19767155100093786180,-0.23543893408133978462,-0.16535514230297326810,-0.00822878649704223211,0.04010041356106493898,0.14622163339474633648,0.29079325511456471931,0.43265747475065696737,0.57164380220412192024,0.65286069471659602392,0.67631767695966249487,0.61705223173572942841,0.55445689456481861423,0.51690103142404963954,0.55018837627597583229,0.59989108893467346650,0.68379701310561691319,0.75376374876492535648,0.82946490617463708439,0.86842421004987979671,0.92083767823622186821,0.94068749195467160629,0.20079739903737034434,0.74559999999999992948,0.16960000000000002851,0.57599999999999995648,0.09439999999999999780,0.08200899406957758153,0.23840000000000000080,-0.03837955210270906775,0.41280000000000000027,0.25192173242472781780,0.01186707125096670909,0.24319999999999999951,0.33280000000000004023,3.65090535072146371576,0.22768910072885009677,0.77231089927114981997,0.12679031491906711526,0.31995161173849495651,0.55401106605419347950,0.32632196532534341049,0.44598893394580646499,0.09439999999999999780,0.12674690743127547954,0.21440000000000000724,0.28901309407496722503,0.30880000000000001892,0.41576000150624270457,2.26818181818181807685,0.07040000000000000424,0.09453386478398291548,0.11200000000000001621,0.15035195237845194738,0.18239999999999997882,0.24488581716243490449,1.59444444444444455300,0.04639999999999999680,0.06232082213669036530,0.06400000000000000133,0.08592586708386684702,0.11040000000000001201,0.14824668922055722620,1.38666666666666671404,1.11360002698200433180,6.09542028680926417650,14.51097179349395638326,5.88729170035258952964,7.20902031379126917443,20.39826349384654946562,0.15473240142820118836,0.84526759857179878388,0.71093545758747056507,0.28906454241252932391,0.26148302432979814158,0.73851697567020180291,0.89705193017178197490,0.38322381762745516554,0.01062041666979584090,-0.01283991612502668501,-0.01028294305767723030,-0.00865667175723430250,0.00454760070596028042,0.18669367121003346832,0.90312305554768990135,0.91210610324368768254,0.89712747211248777823,0.21882796384958974611,-1.20952387946396022755,-0.96935978088729712887,-0.81628143253524854117,0.42960015258647288316,4.87257146181284728215,4.92276934895209095089,4.84299274253294331771,1.18220801493654770198,0.04959999999999999826,0.08959999999999998521,0.02239999999999999630,0.00800000000000000017,0.18239999999999997882,0.06662388749238730423,0.12021975286463411348,0.03010777948939781859,0.01073768088243085353,0.24479327812252740793,0.11999999999999999556,0.03039999999999999994,-0.00800000000000000017,0.00000000000000000000,0.18239999999999997882,0.16106521323646277866,0.04084546037182867906,-0.01073768088243085353,0.00000000000000000000,0.24479327812252740793,0.14651718137211253157,-0.01069015007539338841,0.57611733395858544249,0.00058403234962643485
X1005,X1005_17,100.42060128677530883579,59.27227032064220679786,34.00000000000000000000,0.01832712285031704025,0.01639214647665997518,81.52173913043478137297,92.00000000000000000000,0.93748661008786715598,79.00000000000000000000,0.88659411020890566135,29.00000000000000000000,0.87053384564613800478,19.00000000000000000000,0.85350353483442342739,14.00000000000000000000,0.75530637895279340022,10.00000000000000000000,1.94444444444444441977,0.55555555555555558023,0.55555555555555535818,0.83333333333333348136,1.11111111111111138250,2.41935483870967749098,0.96774193548387099639,2.74193548387096663888,1.45161290322580671663,0.32258064516129036914,0.32258064516129003607,0.32258064516129036914,0.32258064516129036914,0.48387096774193560922,0.64516129032258073828,18.00000000000000000000,0.00000000000000000000,0.55555555555555558023,1.11111111111111071637,1.11111111111111138250,2.22222222222222276500,1.77419354838709675271,0.80645161290322575631,4.67741935483870818757,1.12903225806451645852,1.61290322580645217876,0.00000000000000000000,0.00000000000000000000,0.00000000000000000000,0.00000000000000000000,0.00000000000000000000,11.00000000000000000000,1.11111111111111116045,0.27777777777777779011,0.55555555555555535818,1.11111111111111138250,1.94444444444444486386,0.32258064516129031363,0.16129032258064515681,0.32258064516129020260,0.16129032258064518457,1.77419354838709719679,4.99999999999999555911,0.96774193548387121844,1.29032258064516147655,0.00000000000000000000,0.00000000000000000000,6.00000000000000000000,1.38888888888888883955,0.55555555555555558023,0.55555555555555535818,0.83333333333333348136,1.66666666666666696273,0.00000000000000000000,0.00000000000000000000,0.00000000000000000000,0.00000000000000000000,0.80645161290322608938,0.64516129032258007214,2.74193548387096841523,4.51612903225806583407,0.48387096774193560922,0.80645161290322608938,21.00000000000000000000,1.38888888888888883955,0.55555555555555558023,0.83333333333333303727,1.38888888888888928363,0.83333333333333348136,0.00000000000000000000,0.00000000000000000000,0.00000000000000000000,1.12903225806451645852,4.03225806451612989179,3.22580645161290036071,1.12903225806451645852,0.16129032258064518457,0.16129032258064518457,0.16129032258064518457,16.00000000000000000000,-0.00307316407923356695,-0.02598693902433464945,-0.11430244755010673940,-0.20252070240653358146,-0.24109848857909860209,-0.17021991048999668417,-0.00854269491128775010,0.04020647510916154632,0.14548467154848415683,0.28895445532247887588,0.43040818619705756287,0.57062537501089949377,0.65235158988259867030,0.67221967725805886751,0.60836367417604919616,0.54764281384556501298,0.51692386011733160167,0.55674752639399716081,0.61180589359767689750,0.70127262454198402430,0.77243101015022574973,0.84612167553005357412,0.88417819789355844851,0.93777448041184907623,0.95671750347672579462,0.22746231388731130707,0.74879999999999991012,0.16960000000000002851,0.57920000000000004814,0.09439999999999999780,0.05725944463971650855,0.23999999999999999112,-0.02674961895588028396,0.40960000000000001963,0.52005287159986968160,0.00811910358762508652,0.23999999999999999112,0.33919999999999994600,1.90266181693175973066,0.22679243715856989283,0.77320756284143021819,0.12616587836267470490,0.32084947851538242469,0.54739566561076868911,0.32060322845219868526,0.45260433438923142191,0.16960000000000002851,0.22679243715856989283,0.57120000000000004103,0.76251258022425072447,0.74079999999999990301,0.98930501738282061730,3.37056277056277053816,0.09759999999999999232,0.13051370444963122930,0.31520000000000003570,0.42000589545211963749,0.41280000000000000027,0.55051959990175092230,3.22564102564102572757,0.06079999999999999988,0.08143439575933855701,0.08959999999999998521,0.11957247176926810717,0.15040000000000000591,0.20100686752860666417,1.48571428571428576504,0.84378610710139734241,4.31143176361285362930,10.19708380431945293765,4.08091177531480475693,5.15521787071425130478,14.27799557963425591822,0.16405051146696211783,0.83594948853303796543,0.71315673923017097735,0.28684326076982902265,0.26588935349245024220,0.73411064650754975780,0.88416424465875409489,0.38760674062486077940,0.00744880080551811857,-0.00894730718579548299,-0.00708009406235312645,-0.00593855956211806167,0.00328120137877608870,0.48061328474467857053,0.97962012192242120534,0.98479366289089509401,0.97416941451308913802,0.49922110867296254355,-1.20189037045409063964,-0.95119639973545422329,-0.79790790242631226548,0.44203649353480906070,2.04142204462360288275,2.05240108169781132474,2.03039978759278127995,1.04089689296359466653,0.04959999999999999826,0.08959999999999998521,0.02239999999999999977,0.00800000000000000017,0.18399999999999999689,0.06636769790087868048,0.11966501080917557598,0.03006474583133621897,0.01069498261717941393,0.24573835013194278432,0.11999999999999999556,0.03039999999999999994,-0.00800000000000000017,0.00000000000000000000,0.18399999999999999689,0.16042473925769121235,0.04075972844851563637,-0.01069498261717941393,0.00000000000000000000,0.24573835013194278432,0.10517743817286666352,-0.00737499601954105626,0.54721393170767573810,0.00066097757795802463
X1005,X1005_18,101.29079904484265739484,59.26920571267392290338,41.00000000000000000000,0.01264236012653885931,0.00667747639342217755,81.08108108108108069700,92.50000000000000000000,0.93514944461671556386,2.00000000000000000000,0.88321881842569749388,29.00000000000000000000,0.87061062794192467518,19.00000000000000000000,0.85232684734035202290,14.00000000000000000000,0.75409448211193697009,10.00000000000000000000,2.22222222222222232091,0.55555555555555558023,0.55555555555555535818,0.55555555555555569125,1.11111111111111138250,2.41935483870967749098,0.96774193548387099639,3.06451612903225711904,1.12903225806451645852,0.32258064516129036914,0.32258064516129003607,0.32258064516129036914,0.32258064516129036914,0.32258064516129036914,0.80645161290322608938,18.00000000000000000000,0.00000000000000000000,0.83333333333333337034,1.11111111111111071637,1.11111111111111138250,1.94444444444444486386,1.93548387096774199279,0.64516129032258062725,4.67741935483870818757,1.29032258064516147655,1.45161290322580671663,0.00000000000000000000,0.00000000000000000000,0.00000000000000000000,0.00000000000000000000,0.00000000000000000000,11.00000000000000000000,1.11111111111111116045,0.27777777777777779011,0.27777777777777767909,1.38888888888888928363,1.94444444444444486386,0.32258064516129031363,0.32258064516129031363,0.16129032258064510130,0.16129032258064518457,1.93548387096774243687,4.67741935483870552304,1.12903225806451645852,1.29032258064516147655,0.00000000000000000000,0.00000000000000000000,7.00000000000000000000,1.38888888888888883955,0.83333333333333337034,0.55555555555555535818,0.27777777777777784562,1.94444444444444486386,0.00000000000000000000,0.00000000000000000000,0.00000000000000000000,0.00000000000000000000,0.64516129032258073828,0.64516129032258007214,3.06451612903225845130,4.35483870967741992786,0.48387096774193560922,0.80645161290322608938,22.00000000000000000000,1.38888888888888883955,0.83333333333333337034,0.55555555555555535818,1.38888888888888928363,0.83333333333333348136,0.00000000000000000000,0.00000000000000000000,0.00000000000000000000,1.29032258064516147655,3.06451612903225845130,4.03225806451612545089,1.12903225806451645852,0.16129032258064518457,0.16129032258064518457,0.16129032258064518457,17.00000000000000000000,-0.00228119868215255657,-0.02362821646234809780,-0.10911806898514093966,-0.19634527104213822524,-0.23731354566128209926,-0.16969440907694346987,-0.01237424658800261555,0.02885348950257383624,0.13236340930142390104,0.27535358422310957094,0.41706070404838868626,0.56007822212447844201,0.64939064681189129224,0.67947647621120155215,0.62214158089612081604,0.55840350897749535530,0.51914263071049338016,0.55124998716312734182,0.60173977200504258356,0.68776335372894992215,0.75742712556931190981,0.83009692487552277917,0.86766554578690335831,0.92138306314626505777,0.94134881438335737958,0.22495641091221921237,0.74239999999999994884,0.16480000000000000204,0.57760000000000000231,0.09119999999999998941,0.08413725141394398643,0.23359999999999997433,-0.03910284585524070877,0.40800000000000002931,0.26619466398355690062,0.01185317372149533033,0.24319999999999999951,0.33440000000000003055,3.57304898706194506985,0.22208937198067629781,0.77791062801932364668,0.12294082125603864042,0.31493961352657007247,0.54975845410628010335,0.32766908212560386104,0.45024154589371978563,0.09279999999999999361,0.12516304347826084920,0.24959999999999996079,0.33337560386473430452,0.34239999999999998215,0.45853864734299520922,2.70454545454545458583,0.06880000000000000004,0.09280797101449274333,0.11519999999999999685,0.15510869565217391686,0.18399999999999999689,0.24791666666666670182,1.68333333333333357018,0.04479999999999999261,0.06045289855072463053,0.06720000000000000973,0.09053743961352657410,0.11200000000000001621,0.15099033816425119769,1.52000000000000001776,1.13193990893945528597,6.07599332078298193238,14.97260939522046996331,5.95332494989186056245,7.20793322972243721836,20.92593434511233141393,0.15737915986364842125,0.84262084013635152324,0.71508286282479982532,0.28491713717520006366,0.25644337983261705771,0.74355662016738299780,0.89466696452439398168,0.38574473481602739033,0.01091530909777307934,-0.01307541191205596753,-0.01070036098735036544,-0.00909030124665266559,0.00478284266537136200,0.19093689216940196163,0.93507171513646325511,0.94502672790945008163,0.93116573046379769174,0.23366117515969025975,-1.19844475520236382060,-0.98158132746059012508,-0.83409836300910988882,0.43895114129961620986,4.97036323287857051412,5.02148218879201646558,4.94730950823773163449,1.24733691914284361424,0.04479999999999999954,0.09119999999999998941,0.02080000000000000251,0.00800000000000000017,0.18559999999999998721,0.06040458937198067702,0.12280193236714975757,0.02809782608695651773,0.01078502415458937325,0.25009057971014492239,0.11999999999999999556,0.02880000000000000268,-0.00800000000000000017,0.00000000000000000000,0.18559999999999998721,0.16168478260869562080,0.03888285024154589792,-0.01078502415458937325,0.00000000000000000000,0.25009057971014492239,0.17828379396771998344,-0.01096863888670865719,0.61723493526733619330,0.00038226274208554695
X1005,X1005_19,104.62797624277737895682,63.56028374269408232067,34.00000000000000000000,0.04258323655437292604,0.01022899439179457935,83.79888268156423691835,89.50000000000000000000,0.93489287692094735771,79.00000000000000000000,0.88534660332208880984,30.00000000000000000000,0.87551925689157084065,19.00000000000000000000,0.85578394257398360256,14.00000000000000000000,0.75643422746950095270,10.00000000000000000000,1.84210526315789469010,0.78947368421052632748,0.52631578947368407029,0.52631578947368429233,1.31578947368421084185,2.13114754098360670298,1.14754098360655731881,2.29508196721311374944,1.80327868852459061166,0.49180327868852469209,0.32786885245901609132,0.32786885245901642438,0.32786885245901642438,0.49180327868852469209,0.65573770491803284877,19.00000000000000000000,0.00000000000000000000,0.52631578947368418131,1.31578947368421017572,1.31578947368421084185,1.84210526315789513419,2.13114754098360670298,0.65573770491803273774,4.59016393442622749888,1.47540983606557407626,1.14754098360655754085,0.00000000000000000000,0.00000000000000000000,0.00000000000000000000,0.00000000000000000000,0.00000000000000000000,11.00000000000000000000,1.31578947368421061981,0.26315789473684209065,0.26315789473684203514,1.31578947368421084185,1.84210526315789513419,0.16393442622950818444,0.32786885245901636887,0.16393442622950812892,0.32786885245901642438,1.96721311475409876834,4.59016393442622572252,1.14754098360655754085,1.31147540983606569753,0.00000000000000000000,0.00000000000000000000,6.00000000000000000000,1.31578947368421061981,0.78947368421052632748,0.52631578947368407029,0.78947368421052654952,1.57894736842105309904,0.00000000000000000000,0.00000000000000000000,0.00000000000000000000,0.00000000000000000000,0.81967213114754122749,0.65573770491803218263,2.78688524590163977379,4.26229508196721429414,0.49180327868852469209,0.98360655737704938417,3.00000000000000000000,1.31578947368421061981,0.78947368421052632748,0.78947368421052599441,1.05263157894736858466,1.05263157894736858466,0.00000000000000000000,0.00000000000000000000,0.00000000000000000000,1.14754098360655754085,2.78688524590163977379,4.26229508196720896507,1.47540983606557407626,0.16393442622950821219,0.16393442622950821219,0.00000000000000000000,17.00000000000000000000,-0.00288461271685780179,-0.03413766199705878246,-0.12312242018281838174,-0.21062862538783924671,-0.23605244133668906725,-0.15567408885484740333,-0.00615416731634551694,0.03622854199886651333,0.13088603931472461706,0.26401879196305311215,0.39611412448726046609,0.53380675171384017741,0.62279980370431098358,0.65821764998223974974,0.60942541880318290559,0.55064491026767026227,0.50610792313457719782,0.52889740007273244871,0.57516202383139958254,0.66168302888249763694,0.73260564133658601094,0.81020198642861573912,0.85616656614182495844,0.91520322714406288078,0.93905331490552090834,0.23755294870641951999,0.71199999999999996625,0.16480000000000000204,0.54720000000000001972,0.08959999999999998521,0.08022962091731465628,0.23040000000000002145,-0.03695453521288039056,0.39839999999999997637,0.25319186519806918811,0.01059440601134240510,0.23359999999999997433,0.31359999999999998987,3.55427489694617104732,0.23144308100526619909,0.76855691899473366213,0.12584894828792542176,0.32365227780958116810,0.55959142454686827683,0.32814834354160193897,0.44040857545313177868,0.09600000000000000200,0.13486551934440349498,0.27039999999999997371,0.37873416157220884948,0.36639999999999994795,0.51359968091661234446,2.81666666666666642982,0.07040000000000000424,0.09885028893358997759,0.11359999999999999265,0.15956644436109759799,0.18399999999999999689,0.25841673329468756171,1.61666666666666669627,0.04800000000000000100,0.06743275967220174749,0.06560000000000000553,0.09218307350232961273,0.11359999999999999265,0.15961583317453134634,1.36666666666666647423,1.08828921862153360500,5.97445666240609618569,14.12174519746193901426,5.74213679514932628933,7.06274588102762912456,19.86388199261126530359,0.15442761256762774225,0.84557238743237239653,0.71033117085407160296,0.28966882914592828602,0.26252956520798764739,0.73747043479201235261,0.82409422728533299196,0.40426568511327787281,0.01053532199080880506,-0.01230948827852156383,-0.00974045348558354521,-0.00822346065689849581,0.00484521745531967234,0.18460864669364118740,0.88358947342891591692,0.89293806539288966828,0.87891465917039135469,0.22963823710874167738,-1.16858767628777870939,-0.92551087732751380344,-0.78162989879939126503,0.46103414937917647221,4.80174645738267624751,4.85261366453927411868,4.77679407089063534642,1.24667685349735979372,0.04479999999999999261,0.08959999999999998521,0.02239999999999999630,0.00800000000000000017,0.17759999999999998010,0.06286118182476183036,0.12592557664041587051,0.03141752926138823010,0.01123879327870029241,0.24947679059069996499,0.11999999999999999556,0.03039999999999999994,-0.00800000000000000017,0.00000000000000000000,0.17759999999999998010,0.16858189918050434097,0.04265632254008852597,-0.01123879327870029241,0.00000000000000000000,0.24947679059069996499,0.07751895045995001177,-0.01015509307379445017,0.53855309983912658112,0.00047260242649806823
X1005,X1005_20,103.28966767686870298348,57.46928880283817875352,37.00000000000000000000,0.01955231147040135606,0.01400622869300304461,76.92307692307693400835,97.50000000000000000000,0.93522551429277522850,79.00000000000000000000,0.87057734388067475884,28.00000000000000000000,0.85434390483196975818,18.00000000000000000000,0.85185078857701534982,14.00000000000000000000,0.72350466467146123950,11.00000000000000000000,2.18750000000000000000,0.62500000000000000000,0.62499999999999977796,0.31250000000000005551,1.25000000000000022204,2.81250000000000000000,1.09375000000000000000,2.65624999999999911182,1.09375000000000022204,0.31250000000000005551,0.31249999999999972244,0.31250000000000005551,0.31250000000000005551,0.31250000000000005551,0.78125000000000022204,16.00000000000000000000,0.00000000000000000000,0.62500000000000000000,1.24999999999999955591,0.93750000000000022204,2.18750000000000044409,1.87500000000000000000,0.46875000000000000000,2.49999999999999911182,3.75000000000000088818,1.40625000000000022204,0.00000000000000000000,0.00000000000000000000,0.00000000000000000000,0.00000000000000000000,0.00000000000000000000,10.00000000000000000000,0.93750000000000000000,0.31250000000000000000,0.62499999999999977796,1.25000000000000022204,1.87500000000000044409,0.31250000000000000000,0.15625000000000000000,0.15624999999999994449,0.31250000000000005551,1.71875000000000044409,5.15624999999999555911,1.09375000000000022204,1.09375000000000022204,0.00000000000000000000,0.00000000000000000000,6.00000000000000000000,1.56250000000000000000,0.62500000000000000000,0.62499999999999977796,0.31250000000000005551,1.87500000000000044409,0.00000000000000000000,0.00000000000000000000,0.00000000000000000000,0.00000000000000000000,0.78125000000000022204,0.62499999999999944489,4.21875000000000088818,3.12500000000000088818,0.46875000000000011102,0.78125000000000022204,20.00000000000000000000,1.25000000000000000000,0.62500000000000000000,0.93749999999999966693,1.25000000000000022204,0.93750000000000022204,0.00000000000000000000,0.00000000000000000000,0.00000000000000000000,1.09375000000000022204,2.96875000000000044409,4.21874999999999644729,1.25000000000000022204,0.15625000000000002776,0.15625000000000002776,0.15625000000000002776,15.00000000000000000000,-0.00561496887495360666,-0.02030911720808400295,-0.10606034579539444507,-0.20501772961906822301,-0.25266642677608452949,-0.20647571477244514027,-0.01898588923173746140,0.03187665315750072559,0.15159048973092131840,0.30528457229391264827,0.45194951732625054941,0.58399521627412143143,0.63955124129940466027,0.62366968402529265880,0.54816011922210883256,0.51412681917085067962,0.52561025929067306528,0.59490389426896783664,0.66163784728078534059,0.74575106206221497551,0.80030453406114754333,0.85632001908529353784,0.87950602775235398045,0.92221278376113713371,0.93400271279320246087,0.18268764825284228293,0.80000000000000004441,0.16800000000000001044,0.63200000000000000622,0.09600000000000000200,0.06550113877419265485,0.23840000000000000080,-0.03103435309313062884,0.41280000000000000027,0.43015522269398626110,0.00843403226498308164,0.24479999999999998983,0.38719999999999998863,2.30580841442913264672,0.21010427096157718863,0.78989572903842275586,0.12006824141527354388,0.29822195815818192122,0.51610631104147342008,0.30600204007989628696,0.48389368895852652441,0.16320000000000001172,0.20416367690217124276,0.57919999999999993712,0.72444618120104475878,0.74240000000000005986,0.92860985810321605705,3.53329004329004314755,0.08480000000000000038,0.10606383809234691540,0.15199999999999999623,0.18981524412074873842,0.23679999999999998272,0.29587908221309572321,1.80000000000000004441,0.05440000000000000391,0.06804782496065640840,0.08160000000000000586,0.10196157838183976529,0.13600000000000000977,0.17000940334249620145,1.50476190476190496703,1.50352952544367224341,5.05498338823502901818,12.95815642136215828373,5.62879366086200327857,6.55851291367870015137,18.58695008222415978594,0.21007792436708294659,0.78992207563291716443,0.70164981450476404667,0.29835018549523600884,0.26121063898684254712,0.73878936101315739737,0.92184664438667474062,0.37097788007953325096,0.00852956935903620428,-0.01031879500253656337,-0.00677784247503974112,-0.00572545220829381342,0.00353664867111029829,0.39577228998518154679,0.97178968546643407223,0.92282716579954926495,0.90324384250990852330,0.41115751618323076455,-1.20995042630094395975,-0.79526519231462011739,-0.67173629711707838474,0.41548084831532977601,2.46148290427201033026,2.33338402360367913602,2.28337381239654879650,1.04003761181230602872,0.04800000000000000100,0.08959999999999998521,0.04319999999999999535,0.00960000000000000089,0.16320000000000001172,0.06004422171773778072,0.11202423413195088109,0.05403181182896590190,0.01200400328292262724,0.20393196340953281820,0.11999999999999999556,0.03039999999999999994,0.01279999999999999541,0.02239999999999999977,0.18559999999999998721,0.15006004924383939403,0.03803581511188852682,0.01599599671707737508,0.02800000000000000405,0.23193196340953284307,-0.15842978518457542791,-0.00764312763076362145,0.25705106313075443136,0.03336485515235594612
X1005,X1005_21,100.72343152046607883676,56.99474510311995345546,38.00000000000000000000,0.01231496130028437996,0.00968883966700712605,78.12500000000000000000,96.00000000000000000000,0.92586788036383571576,2.00000000000000000000,0.87048201101211475361,29.00000000000000000000,0.85772587373574182834,19.00000000000000000000,0.83028007488593935648,14.00000000000000000000,0.76258672267642013676,11.00000000000000000000,2.22222222222222232091,0.55555555555555558023,0.55555555555555535818,0.55555555555555569125,1.11111111111111138250,2.41935483870967749098,1.12903225806451623647,3.38709677419354759920,0.64516129032258073828,0.48387096774193560922,0.32258064516129003607,0.32258064516129036914,0.32258064516129036914,0.32258064516129036914,0.64516129032258073828,18.00000000000000000000,0.00000000000000000000,0.83333333333333337034,1.11111111111111071637,1.11111111111111138250,1.94444444444444486386,1.93548387096774199279,0.48387096774193549820,4.19354838709677224529,1.93548387096774243687,1.45161290322580671663,0.00000000000000000000,0.00000000000000000000,0.00000000000000000000,0.00000000000000000000,0.00000000000000000000,11.00000000000000000000,1.11111111111111116045,0.27777777777777779011,0.27777777777777767909,1.66666666666666696273,1.66666666666666696273,0.32258064516129031363,0.16129032258064515681,0.16129032258064510130,0.32258064516129036914,1.77419354838709719679,4.99999999999999555911,1.12903225806451645852,1.12903225806451645852,0.00000000000000000000,0.00000000000000000000,7.00000000000000000000,1.38888888888888883955,0.55555555555555558023,0.55555555555555535818,0.83333333333333348136,1.66666666666666696273,0.00000000000000000000,0.00000000000000000000,0.00000000000000000000,0.00000000000000000000,0.64516129032258073828,0.64516129032258007214,4.19354838709677490982,3.22580645161290435752,0.48387096774193560922,0.80645161290322608938,21.00000000000000000000,1.11111111111111116045,1.11111111111111116045,0.55555555555555535818,1.38888888888888928363,0.83333333333333348136,0.00000000000000000000,0.00000000000000000000,0.00000000000000000000,0.80645161290322608938,3.87096774193548487375,3.87096774193548087695,0.96774193548387121844,0.16129032258064518457,0.32258064516129036914,0.00000000000000000000,16.00000000000000000000,0.00535945630821733909,-0.00795483982685602289,-0.08004525973137779915,-0.16778433161140943186,-0.21945325988820840735,-0.16511543653528382158,-0.00981008521834291283,0.04241715554428553137,0.16245162547994729252,0.31442141894356245846,0.46836228426932624558,0.60898218010810256651,0.68755866734987602928,0.69485569589004503310,0.62396213099950170733,0.55829118499102015072,0.53310655873456558318,0.57626272792540278456,0.63231923392788536020,0.71153926839137671134,0.77696942904237742411,0.83689070603373694190,0.86941431213031228342,0.91052160775241863799,0.92932409595959697413,0.20045885247865000145,0.77200000000000001954,0.16600000000000000866,0.60599999999999998312,0.08999999999999999667,0.08390373879339070584,0.23599999999999998757,-0.03954920219753829680,0.40999999999999997558,0.27903554913782924185,0.01193790303625329174,0.24399999999999999467,0.36199999999999998845,3.52812201357497823295,0.21506429425837320091,0.78493570574162685460,0.11664839181286548730,0.30585293726741097364,0.53114865762892082834,0.31608436337054757193,0.46885134237107922717,0.09800000000000000377,0.12698614433811802882,0.31800000000000000488,0.41100810738968635016,0.41599999999999998090,0.53799425172780435123,3.23717948717948722503,0.07199999999999999456,0.09328648325358851467,0.11599999999999999201,0.15024172647527911373,0.18800000000000000044,0.24352820972886762840,1.61111111111111116045,0.04800000000000000100,0.06219098883572567876,0.06600000000000000311,0.08552548511430090039,0.11399999999999999023,0.14771647395002659997,1.37499999999999977796,1.08065428982675193481,6.26463451145164285094,14.61511256956708670884,5.91589839520433269371,7.34528880127839478575,20.53101096477141851437,0.14768211727447000392,0.85231788272552999608,0.71149560050855842341,0.28850439949144168761,0.26358346394986620354,0.73641653605013379646,0.97257760000193527183,0.36789668057746099938,0.01090125484297788452,-0.01307687700648335616,-0.01054230512060472247,-0.00889102748345654836,0.00449937510522214340,0.23421332912238709834,0.96233527575834976187,0.97567291914659459717,0.96022609133227820877,0.24881898105814587163,-1.19984897810927582107,-0.96693913368185735457,-0.81540449040082929599,0.41307933957186537821,4.13038682556381164801,4.18994108489764638392,4.12409830469805793740,1.06351746361315413480,0.04599999999999999922,0.08799999999999999489,0.02400000000000000050,0.00800000000000000017,0.19000000000000000222,0.05958682216905901441,0.11401681286549707195,0.03109549441786283938,0.01036516480595427864,0.24613237639553431357,0.11999999999999999556,0.03200000000000000067,-0.00800000000000000017,0.00000000000000000000,0.19000000000000000222,0.15547747208931420038,0.04146065922381711455,-0.01036516480595427864,0.00000000000000000000,0.24613237639553431357,0.16941530640154553455,-0.01104468445400061394,0.58249464597341094052,0.00055585781737725159
