patient,trial,SP,DP,ppg_fft_peaks_0,ppg_fft_peaks_heights_0,ppg_fft_peaks_neighbor_avgs_0,hr_0,p2p_0,ppg_max_neighbor_mean_0,ppg_min_0,vpg_max_neighbor_mean_0,vpg_min_0,apg_max_neighbor_mean_0,apg_min_0,ppg3_max_neighbor_mean_0,ppg3_min_0,ppg4_max_neighbor_mean_0,ppg4_min_0,ppg_histogram_up_0,ppg_histogram_up_1,ppg_histogram_up_2,ppg_histogram_up_3,ppg_histogram_up_4,ppg_histogram_down_0,ppg_histogram_down_1,ppg_histogram_down_2,ppg_histogram_down_3,ppg_histogram_down_4,ppg_histogram_down_5,ppg_histogram_down_6,ppg_histogram_down_7,ppg_histogram_down_8,ppg_histogram_down_9,ppg_max_0,vpg_histogram_up_0,vpg_histogram_up_1,vpg_histogram_up_2,vpg_histogram_up_3,vpg_histogram_up_4,vpg_histogram_down_0,vpg_histogram_down_1,vpg_histogram_down_2,vpg_histogram_down_3,vpg_histogram_down_4,vpg_histogram_down_5,vpg_histogram_down_6,vpg_histogram_down_7,vpg_histogram_down_8,vpg_histogram_down_9,vpg_max_0,apg_histogram_up_0,apg_histogram_up_1,apg_histogram_up_2,apg_histogram_up_3,apg_histogram_up_4,apg_histogram_down_0,apg_histogram_down_1,apg_histogram_down_2,apg_histogram_down_3,apg_histogram_down_4,apg_histogram_down_5,apg_histogram_down_6,apg_histogram_down_7,apg_histogram_down_8,apg_histogram_down_9,apg_max_0,ppg3_histogram_up_0,ppg3_histogram_up_1,ppg3_histogram_up_2,ppg3_histogram_up_3,ppg3_histogram_up_4,ppg3_histogram_down_0,ppg3_histogram_down_1,ppg3_histogram_down_2,ppg3_histogram_down_3,ppg3_histogram_down_4,ppg3_histogram_down_5,ppg3_histogram_down_6,ppg3_histogram_down_7,ppg3_histogram_down_8,ppg3_histogram_down_9,ppg3_max_0,ppg4_histogram_up_0,ppg4_histogram_up_1,ppg4_histogram_up_2,ppg4_histogram_up_3,ppg4_histogram_up_4,ppg4_histogram_down_0,ppg4_histogram_down_1,ppg4_histogram_down_2,ppg4_histogram_down_3,ppg4_histogram_down_4,ppg4_histogram_down_5,ppg4_histogram_down_6,ppg4_histogram_down_7,ppg4_histogram_down_8,ppg4_histogram_down_9,ppg4_max_0,usdc_0,usdc_1,usdc_2,usdc_3,usdc_4,usdc_5,dsdc_0,dsdc_1,dsdc_2,dsdc_3,dsdc_4,dsdc_5,dsdc_6,dsdc_7,dsdc_8,dsdc_9,dsdc_10,dsdc_11,dsdc_12,dsdc_13,dsdc_14,dsdc_15,dsdc_16,dsdc_17,dsdc_18,ppg_mean_cycles_match_peak_59,Tc,Ts,Td,Tsteepest,Steepest,TNegSteepest,NegSteepest,TdiaRise,DiaRise,SteepDiaRise,TSystoDiaRise,TdiaToEnd,Ratio,Ts_norm,Td_norm,Tsteepest_norm,TNegSteepest_norm,TdiaRise_norm,TSystoDiaRise_norm,TdiaToEnd_norm,SW25,SW25_norm,DW25,DW25_norm,SWaddDW25,SWaddDW25_norm,DWdivSW25,SW50,SW50_norm,DW50,DW50_norm,SWaddDW50,SWaddDW50_norm,DWdivSW50,SW75,SW75_norm,DW75,DW75_norm,SWaddDW75,SWaddDW75_norm,DWdivSW75,S1,S2,S3,S4,AUCsys,AUCdia,S1_norm,S2_norm,S3_norm,S4_norm,AUCsys_norm,AUCdia_norm,SQI_skew,SQI_kurtosis,apg_a,apg_b,apg_c,apg_d,apg_e,ppg_a,ppg_b,ppg_c,ppg_d,ppg_e,ratio_apg_b,ratio_apg_c,ratio_apg_d,ratio_apg_e,ratio_ppg_b,ratio_ppg_c,ratio_ppg_d,ratio_ppg_e,T_a,T_b,T_c,T_d,T_e,T_a_norm,T_b_norm,T_c_norm,T_d_norm,T_e_norm,T_peak_a,T_peak_b,T_peak_c,T_peak_d,T_peak_e,T_peak_a_norm,T_peak_b_norm,T_peak_c_norm,T_peak_d_norm,T_peak_e_norm,AI,bd,bcda,sdoo
X1002,X1002_0,117.81273602568609248920,68.14661023632190506305,35.00000000000000000000,0.02982011693343121148,0.01238668676582437705,87.71929824561404132055,85.50000000000000000000,0.93350049661106115906,2.00000000000000000000,0.89307838365827763027,29.00000000000000000000,0.88290150115211452064,19.00000000000000000000,0.86617839867091928063,14.00000000000000000000,0.79088749929719892595,10.00000000000000000000,1.94444444444444441977,0.55555555555555558023,0.55555555555555535818,0.83333333333333348136,1.11111111111111138250,1.93548387096774199279,2.09677419354838701082,3.22580645161290213707,0.32258064516129036914,0.48387096774193560922,0.32258064516129003607,0.16129032258064518457,0.32258064516129036914,0.48387096774193560922,0.64516129032258073828,18.00000000000000000000,0.00000000000000000000,0.55555555555555558023,1.11111111111111071637,1.11111111111111138250,2.22222222222222276500,1.77419354838709675271,0.96774193548387099639,3.38709677419354759920,1.93548387096774243687,1.61290322580645217876,0.32258064516129003607,0.00000000000000000000,0.00000000000000000000,0.00000000000000000000,0.00000000000000000000,11.00000000000000000000,1.11111111111111116045,0.27777777777777779011,0.55555555555555535818,0.83333333333333348136,2.22222222222222276500,0.32258064516129031363,0.32258064516129031363,0.16129032258064510130,0.16129032258064518457,1.77419354838709719679,3.87096774193548087695,1.93548387096774243687,1.45161290322580671663,0.00000000000000000000,0.00000000000000000000,6.00000000000000000000,1.38888888888888883955,1.11111111111111116045,0.55555555555555535818,0.27777777777777784562,1.66666666666666696273,0.00000000000000000000,0.00000000000000000000,0.00000000000000000000,0.00000000000000000000,0.80645161290322608938,0.96774193548387021924,4.19354838709677490982,2.58064516129032295311,0.48387096774193560922,0.96774193548387121844,22.00000000000000000000,1.38888888888888883955,0.83333333333333337034,0.83333333333333303727,1.11111111111111138250,0.83333333333333348136,0.00000000000000000000,0.00000000000000000000,0.00000000000000000000,0.64516129032258073828,5.64516129032258184850,1.77419354838709519839,1.45161290322580671663,0.00000000000000000000,0.16129032258064518457,0.32258064516129036914,17.00000000000000000000,-0.00427123921354364590,-0.03574997011633727906,-0.13428923420206628769,-0.21494420788329948735,-0.24744515344849568605,-0.17132603930037948459,-0.00998069346574882547,0.04169523071280363535,0.15855206844603339511,0.31012819469573899012,0.45396863997839409510,0.59747201050077780593,0.69533018763558462894,0.75587156582455794496,0.74079469856329782651,0.68718302932916530690,0.59966253167572014515,0.55886991969755561716,0.55614983957626140665,0.61285567994369039013,0.66897753720738684091,0.75401727356237935318,0.82254327975242991222,0.89783234187990612618,0.92820144481029065453,0.25794056705304296839,0.68320000000000002949,0.15360000000000001430,0.52960000000000007070,0.08639999999999999070,0.09036935421758295062,0.20960000000000000853,-0.04609591850840488725,0.38239999999999996216,0.17873877114022168611,0.01061449314152077515,0.22880000000000003113,0.30080000000000001181,5.41863993034323776499,0.22484268125854994791,0.77515731874144999658,0.12645690834473324871,0.30681258549931600399,0.55972640218878255691,0.33488372093023255349,0.44027359781121749860,0.08959999999999998521,0.13116279069767441956,0.15520000000000000462,0.22719562243502053334,0.24479999999999998983,0.35835841313269495290,1.73333333333333317050,0.06560000000000000553,0.09603283173734609990,0.09919999999999999651,0.14519835841313272207,0.16480000000000000204,0.24123119015047880809,1.51666666666666660745,0.04320000000000000229,0.06325581395348836566,0.05600000000000000810,0.08196990424076606996,0.09919999999999999651,0.14522571819425444950,1.30666666666666664298,1.20223559115597700142,5.73951314514034827141,13.63199194782952972105,5.65712889423628872976,6.94174873629632394056,19.28912084206582022716,0.17407082459052020118,0.82592917540947963229,0.70668754330417749010,0.29331245669582256541,0.26442338239895485374,0.73557661760104520177,0.98447164469342285376,0.36959015682080936793,0.01215465968639151476,-0.01513452982172716101,-0.01321878792567929804,-0.01143421156374815374,0.00435931063173609044,0.17913931325005003070,0.95450982942607942583,0.96133578305872435799,0.94374867914719295925,0.16672964119270444749,-1.24546720294370349968,-1.08862088744519680539,-0.94195605317734421025,0.35930508623798607104,5.35057627714000716423,5.38864740524258944987,5.28920116008845564437,0.93735413191671512756,0.03840000000000000357,0.08799999999999999489,0.01920000000000000179,0.00800000000000000017,0.18399999999999999689,0.05619699042407660938,0.12880984952120383413,0.02812585499316005294,0.01170998632010943931,0.26938440492476056765,0.11519999999999999685,0.02719999999999999502,-0.00800000000000000017,0.00000000000000000000,0.18399999999999999689,0.16864569083447333853,0.03983584131326949052,-0.01170998632010943931,0.00000000000000000000,0.26938440492476056765,0.42580465144085177798,-0.01332621363061505318,0.78510973767883784902,0.00057717795287074813
X1002,X1002_1,122.24731001626523152481,67.05417670334270496824,35.00000000000000000000,0.01723768564861921995,0.01680417482336579033,75.00000000000000000000,100.00000000000000000000,0.91745081366853786786,4.00000000000000000000,0.85958811698024761849,27.00000000000000000000,0.83753893874930829266,19.00000000000000000000,0.83063322141731621429,15.00000000000000000000,0.73989817849072947453,11.00000000000000000000,2.05882352941176449690,0.58823529411764707842,0.58823529411764685637,0.58823529411764718944,1.17647058823529437888,2.69841269841269859597,1.11111111111111116045,3.49206349206349075942,0.47619047619047633058,0.31746031746031749821,0.31746031746031716514,0.31746031746031749821,0.31746031746031749821,0.31746031746031749821,0.63492063492063499641,17.00000000000000000000,0.00000000000000000000,0.88235294117647056211,0.88235294117647022905,1.17647058823529437888,2.05882352941176494099,1.58730158730158721347,0.95238095238095232808,4.60317460317460103170,1.74603174603174648993,1.11111111111111138250,0.00000000000000000000,0.00000000000000000000,0.00000000000000000000,0.00000000000000000000,0.00000000000000000000,10.00000000000000000000,0.88235294117647056211,0.58823529411764707842,0.29411764705882342819,1.17647058823529437888,2.05882352941176494099,0.15873015873015872135,0.31746031746031744269,0.15873015873015866584,0.15873015873015874910,1.58730158730158765756,4.92063492063491647599,2.53968253968253998565,0.15873015873015874910,0.00000000000000000000,0.00000000000000000000,6.00000000000000000000,0.88235294117647056211,0.88235294117647056211,0.88235294117647022905,0.88235294117647078416,1.47058823529411797360,0.00000000000000000000,0.00000000000000000000,0.00000000000000000000,0.00000000000000000000,0.00000000000000000000,1.11111111111111027228,6.03174603174603252143,1.58730158730158765756,0.47619047619047633058,0.79365079365079382878,20.00000000000000000000,0.88235294117647056211,1.17647058823529415683,0.88235294117647022905,1.17647058823529437888,0.88235294117647078416,0.00000000000000000000,0.00000000000000000000,0.00000000000000000000,0.15873015873015874910,3.17460317460317531513,6.19047619047618535859,0.00000000000000000000,0.15873015873015874910,0.31746031746031749821,0.00000000000000000000,15.00000000000000000000,-0.00306187395138507717,-0.02140629890484736092,-0.09437549908290671086,-0.19098887166989156339,-0.24181489832766284165,-0.18997974209467255458,-0.00880118829504522061,0.06257871049832347543,0.20133704154067280645,0.35967944103217908136,0.49653600787816232209,0.61795104454161409180,0.68983997222899284818,0.70462647936127908999,0.65122259141928362514,0.60458228763703014685,0.58452688340482417129,0.62159792436612115729,0.67846964988408153818,0.75869214619803859723,0.81747953933096351165,0.87816458183234658019,0.90960592915322191487,0.94582673180572574001,0.95622152071414723284,0.18469885601248026141,0.80600000000000004974,0.17399999999999998801,0.63200000000000000622,0.10199999999999999345,0.08988696807590570992,0.23199999999999998401,-0.04173273248970263416,0.43199999999999999512,0.22172859678439524322,0.00903909027997182313,0.25800000000000000711,0.37399999999999999911,4.34747179465609434601,0.21537878456475986755,0.78462121543524010470,0.12597710912475637568,0.28741342101809591592,0.53563236073239139934,0.32025357616763150403,0.46436763926760865617,0.08799999999999999489,0.10926871442667095147,0.17999999999999999334,0.22351267637809438260,0.26800000000000001599,0.33278139080476532019,2.04545454545454541417,0.06600000000000000311,0.08194340347142226033,0.11200000000000000233,0.13906927290667212005,0.17799999999999999156,0.22101267637809438038,1.70138888888888883955,0.04399999999999999745,0.05452379737237346424,0.06199999999999999956,0.07699290842191730544,0.10599999999999999700,0.13151670579429075580,1.42500000000000004441,1.08523981968670968357,6.09999683739277465122,15.43002355681916171193,5.60576045836251424248,7.18523665707948389070,21.03578401518167595441,0.15068819113213505201,0.84931180886786494799,0.73343943054026461414,0.26656056945973527483,0.25450250024598680687,0.74549749975401324864,1.05173112578538852091,0.34367381065129520845,0.01201984917457863192,-0.01448709085970309451,-0.00508735098673310238,-0.00440389309056157807,0.00375115475344719312,0.18684872330065249724,0.94438728605840738251,0.68340761330370480842,0.62724420448950624074,0.19880504864749309890,-1.20538157049436422952,-0.42230116950996443581,-0.36547857964732921587,0.31228172639710066738,5.12145738741669109828,3.75407824392163691485,3.46410677171273562180,1.07965547744064638280,0.05800000000000000294,0.08599999999999999312,0.08399999999999999134,0.01800000000000000211,0.13000000000000000444,0.07145331175238289756,0.10676871442667094925,0.10432719928841191481,0.02238401454283867054,0.16128353188779848137,0.11599999999999999201,0.02999999999999999889,0.05399999999999999245,0.07199999999999999456,0.20200000000000001288,0.14392547281237694223,0.03715675838570602768,0.06717044090270588019,0.08955445544554455073,0.25083798733334305986,-0.72988354773417130072,-0.00747475028214355380,-0.41760182133707057783,0.11981797941345218028
X1002,X1002_2,118.37199904092547342316,68.13963223014695813617,36.00000000000000000000,0.01487550152891314870,0.01401983140503678706,81.52173913043478137297,92.00000000000000000000,0.92530321438368845488,2.00000000000000000000,0.87260014249485851057,28.00000000000000000000,0.86198859120533533051,19.00000000000000000000,0.87138759783873320774,14.00000000000000000000,0.77110794141262184453,11.00000000000000000000,2.05882352941176449690,0.58823529411764707842,0.58823529411764685637,0.58823529411764718944,1.17647058823529437888,2.53968253968253954156,0.95238095238095232808,3.49206349206349075942,0.63492063492063499641,0.31746031746031749821,0.47619047619047577546,0.15873015873015874910,0.31746031746031749821,0.31746031746031749821,0.79365079365079382878,17.00000000000000000000,0.00000000000000000000,0.88235294117647056211,0.88235294117647022905,1.17647058823529437888,2.05882352941176494099,1.74603174603174604584,0.79365079365079360674,4.76190476190476008611,1.58730158730158765756,1.11111111111111138250,0.00000000000000000000,0.00000000000000000000,0.00000000000000000000,0.00000000000000000000,0.00000000000000000000,10.00000000000000000000,0.88235294117647056211,0.58823529411764707842,0.29411764705882342819,1.17647058823529437888,2.05882352941176494099,0.31746031746031744269,0.15873015873015872135,0.31746031746031733167,0.15873015873015874910,1.90476190476190532230,4.44444444444444108910,2.22222222222222276500,0.47619047619047633058,0.00000000000000000000,0.00000000000000000000,6.00000000000000000000,1.47058823529411775155,0.58823529411764707842,0.88235294117647022905,0.29411764705882359472,1.76470588235294156831,0.00000000000000000000,0.00000000000000000000,0.00000000000000000000,0.00000000000000000000,0.31746031746031749821,0.95238095238095155093,4.28571428571428647558,3.17460317460317531513,0.47619047619047633058,0.79365079365079382878,20.00000000000000000000,1.47058823529411775155,0.58823529411764707842,0.88235294117647022905,1.17647058823529437888,0.88235294117647078416,0.00000000000000000000,0.00000000000000000000,0.00000000000000000000,0.95238095238095266115,3.17460317460317531513,4.60317460317459836716,0.79365079365079382878,0.15873015873015874910,0.15873015873015874910,0.15873015873015874910,16.00000000000000000000,-0.00296434574596476322,-0.02666148861526395145,-0.12273181407881161853,-0.21729633332360806519,-0.25935900509460585450,-0.19090230383465289776,-0.00870872064759447249,0.05462714122077864942,0.17981224015815783224,0.33481289405850672702,0.47519081603789647961,0.60826277741502887686,0.69372616848317980587,0.73253946977450001832,0.68793621483416622642,0.62554808689177154868,0.56891381762881942930,0.57472212434053382424,0.60616417296706137652,0.68439979398065164951,0.75281780071396142695,0.83098057291345317488,0.87542262203452614333,0.92970478607239859237,0.94670783410508574374,0.23842662675781453596,0.75679999999999991722,0.16000000000000000333,0.59680000000000010818,0.08959999999999998521,0.08606547242374873452,0.22240000000000001434,-0.04147410455668147644,0.41439999999999999059,0.21105702637372489305,0.01130583491837204926,0.25440000000000001501,0.34239999999999992664,4.41151984477929026696,0.21185530048413428461,0.78814469951586563212,0.11865276820745032649,0.29503414082039053357,0.54880297170918868055,0.33694767122505447920,0.45119702829081120843,0.09119999999999998941,0.12089995921868627871,0.17599999999999998979,0.23156149817847726524,0.26719999999999999307,0.35246145739716350231,1.93333333333333357018,0.06720000000000000973,0.08907487270221588205,0.10720000000000000362,0.14147723384226879029,0.17439999999999997171,0.23055210654448465846,1.60277777777777785673,0.04320000000000000229,0.05724978618574546457,0.06079999999999999988,0.08034697909329120702,0.10400000000000000910,0.13759676527903669241,1.41999999999999970690,1.09268700285842501607,5.72923664346264516212,14.39362262284423721326,5.33664583644167400678,6.82192364632107040023,19.73026845928590944368,0.16010384074262976051,0.83989615925737015623,0.72873530208944337083,0.27126469791055651815,0.25743306959037481896,0.74256693040962518104,1.00351985698313317386,0.35953354558934025320,0.01153597511397564876,-0.01400529772413741138,-0.00389289716290764937,-0.00329531649788098466,0.00411073545646081524,0.18278165333839113682,0.91387043560012060084,0.62504309037667393767,0.56387956473211553465,0.17637159021932996561,-1.21395528438966393558,-0.33447732834448351547,-0.28296504558169754961,0.35596407566298243763,5.01084364083304567572,3.48277261267107807186,3.15588538744178404016,0.95942202727933434403,0.04479999999999999261,0.08799999999999999489,0.09119999999999998941,0.01920000000000000179,0.11520000000000001072,0.05913025474897759537,0.11669198389372481550,0.11687901756664678676,0.02474603426226944236,0.15666567163670283569,0.11519999999999999685,0.02720000000000000195,0.06400000000000000133,0.08320000000000001006,0.19839999999999996527,0.15272504573515671700,0.03603306184143185292,0.08084595572521492690,0.10559198998748435538,0.26225766162418723271,-0.95247698612646536365,-0.00635324476619792550,-0.59651291046348275948,0.13217638376478313411
X1002,X1002_3,117.39238118294410639919,67.22563730482190180737,39.00000000000000000000,0.01140041932321482314,0.00771051680711733189,79.78723404255319451295,94.00000000000000000000,0.92730439525132735135,79.00000000000000000000,0.87808088890629798495,28.00000000000000000000,0.86329782244415365078,19.00000000000000000000,0.87205630934910194352,14.00000000000000000000,0.76705842469373397563,11.00000000000000000000,2.05882352941176449690,0.58823529411764707842,0.58823529411764685637,0.58823529411764718944,1.17647058823529437888,2.38095238095238093123,2.06349206349206371058,3.01587301587301492845,0.31746031746031749821,0.31746031746031749821,0.31746031746031716514,0.31746031746031749821,0.31746031746031749821,0.31746031746031749821,0.63492063492063499641,17.00000000000000000000,0.00000000000000000000,0.58823529411764707842,1.17647058823529371274,1.17647058823529437888,2.05882352941176494099,1.74603174603174604584,0.79365079365079360674,3.49206349206349075942,2.53968253968253998565,1.11111111111111138250,0.31746031746031716514,0.00000000000000000000,0.00000000000000000000,0.00000000000000000000,0.00000000000000000000,10.00000000000000000000,1.17647058823529415683,0.29411764705882353921,0.29411764705882342819,1.47058823529411797360,1.76470588235294156831,0.31746031746031744269,0.15873015873015872135,0.15873015873015866584,0.31746031746031749821,1.74603174603174648993,4.28571428571428203469,2.06349206349206415467,0.95238095238095266115,0.00000000000000000000,0.00000000000000000000,6.00000000000000000000,1.47058823529411775155,0.58823529411764707842,0.58823529411764685637,0.58823529411764718944,1.76470588235294156831,0.00000000000000000000,0.00000000000000000000,0.00000000000000000000,0.00000000000000000000,0.47619047619047633058,0.95238095238095155093,3.65079365079365159019,3.65079365079365159019,0.47619047619047633058,0.79365079365079382878,20.00000000000000000000,1.17647058823529415683,1.17647058823529415683,0.58823529411764685637,1.17647058823529437888,0.88235294117647078416,0.00000000000000000000,0.00000000000000000000,0.00000000000000000000,0.47619047619047633058,4.60317460317460369623,3.65079365079364759339,0.79365079365079382878,0.15873015873015874910,0.15873015873015874910,0.15873015873015874910,16.00000000000000000000,-0.00439533207113780230,-0.02928260818582219954,-0.12620452050993644089,-0.22562157733797533199,-0.26813799729082171686,-0.20772507285879768246,-0.01357765780537922504,0.05073014522195590237,0.18746746526831145618,0.35676994689815932915,0.51040879776809366941,0.64858657820472864763,0.72807765241792332667,0.75074351890382762242,0.68578014248574037381,0.60877774877952772759,0.55204174224465574206,0.56762162918909220277,0.60875574857419967323,0.69412282950040193885,0.76706657622248686224,0.84444077000316075665,0.88568566821290306557,0.93880382536221562706,0.95181143849686744574,0.22752151949662111075,0.75519999999999998241,0.15840000000000001301,0.59679999999999999716,0.08639999999999999070,0.08531516310070548503,0.21920000000000000595,-0.04282224156310532326,0.41120000000000000995,0.20152859043703266750,0.01359843381552988673,0.25280000000000002469,0.34399999999999997247,4.60121773987487614477,0.20975369700548709972,0.79024630299451281701,0.11438627248345265008,0.29033614453384515297,0.54451342240594469146,0.33475972540045761949,0.45548657759405530854,0.08959999999999998521,0.11864351886026425209,0.16480000000000000204,0.21815281981250461696,0.25440000000000001501,0.33679633867276886905,1.84242424242424229774,0.06560000000000000553,0.08685437735291945405,0.10400000000000000910,0.13768429664624393105,0.16960000000000002851,0.22453867399916341285,1.58888888888888901718,0.04320000000000000229,0.05717049900346939800,0.05760000000000000536,0.07627992667503261104,0.10080000000000000071,0.13345042567850201598,1.33999999999999985789,1.05945045491275791072,5.81569787533902449184,13.77935186962067781735,5.40596445847838946719,6.87514833025178084824,19.18531632809906994908,0.15400459940792768365,0.84599540059207212206,0.71776516477790985871,0.28223483522209008578,0.26396219931230296973,0.73603780068769708578,1.04471974880073537051,0.34890742635869481658,0.01137319785389344362,-0.01391170516986177733,-0.00911596706824762196,-0.00779178965294905455,0.00416511281450913668,0.17891630209619360792,0.90882719815927148765,0.81304488537327956887,0.78265822879405178014,0.16142990741406909594,-1.22443863959292276178,-0.81597713527743898076,-0.69761376297879940100,0.36772988468209044655,5.16520653021052567055,4.54853299113989706370,4.36641838737281862137,0.92657561209927297163,0.04160000000000000503,0.08799999999999999489,0.04479999999999999261,0.01119999999999999989,0.16960000000000002851,0.05513244014664993309,0.11649298122585567683,0.05911084249895426357,0.01480690681823774134,0.22477221279003961607,0.11679999999999998717,0.02879999999999999921,0.01600000000000000033,0.02720000000000000195,0.19680000000000000271,0.15462125685883712500,0.03812827563298147593,0.02098256686597278417,0.03578947368421052377,0.26056168647425009821,-0.07857762601877485431,-0.01016754661230284858,0.28915225866331561999,0.04705260846439677375
X1002,X1002_4,113.96040542586078458953,65.05262940330931087374,40.00000000000000000000,0.01254856540654125663,0.00744798839735199333,82.41758241758242320429,91.00000000000000000000,0.91932951246923177990,3.00000000000000000000,0.88482803735680959356,29.00000000000000000000,0.87076570680604703512,20.00000000000000000000,0.85664676338795209265,15.00000000000000000000,0.75093377739339184362,11.00000000000000000000,2.05882352941176449690,0.58823529411764707842,0.58823529411764685637,0.58823529411764718944,1.17647058823529437888,2.06349206349206371058,2.85714285714285720630,2.53968253968253865338,0.31746031746031749821,0.31746031746031749821,0.31746031746031716514,0.15873015873015874910,0.31746031746031749821,0.31746031746031749821,0.79365079365079382878,17.00000000000000000000,0.00000000000000000000,0.58823529411764707842,0.88235294117647022905,1.17647058823529437888,2.35294117647058875775,1.74603174603174604584,0.79365079365079360674,3.01587301587301492845,2.38095238095238137532,1.26984126984126999282,0.79365079365079294060,0.00000000000000000000,0.00000000000000000000,0.00000000000000000000,0.00000000000000000000,11.00000000000000000000,0.88235294117647056211,0.58823529411764707842,0.29411764705882342819,1.17647058823529437888,2.05882352941176494099,0.47619047619047616404,0.15873015873015872135,0.15873015873015866584,0.31746031746031749821,2.06349206349206415467,3.80952380952380620371,1.42857142857142882519,1.58730158730158765756,0.00000000000000000000,0.00000000000000000000,6.00000000000000000000,1.47058823529411775155,0.58823529411764707842,0.58823529411764685637,0.58823529411764718944,1.76470588235294156831,0.00000000000000000000,0.00000000000000000000,0.00000000000000000000,0.00000000000000000000,0.63492063492063499641,0.63492063492063433028,3.17460317460317531513,3.96825396825396925493,0.63492063492063499641,0.95238095238095266115,21.00000000000000000000,1.47058823529411775155,0.58823529411764707842,0.88235294117647022905,1.17647058823529437888,0.88235294117647078416,0.00000000000000000000,0.00000000000000000000,0.00000000000000000000,0.47619047619047633058,4.28571428571428647558,3.65079365079364759339,1.11111111111111138250,0.15873015873015874910,0.15873015873015874910,0.15873015873015874910,16.00000000000000000000,-0.00359845236059020681,-0.02697995033562580747,-0.11998333329445629025,-0.21215627136787551521,-0.25508107739766633371,-0.18927416447705652791,-0.01108554488869769455,0.05058914574638605222,0.18638925732765865284,0.36285748733716549630,0.52768828266515943604,0.67912671490464437962,0.77450871590591741089,0.81542155222526879754,0.76017729993714744374,0.67248219302618250648,0.58571296659087901393,0.56651398093332638872,0.58037543513957789987,0.65114452002571399092,0.72197796453808482653,0.80571978192227911020,0.85773637534308611041,0.92367667767068617479,0.94866870328785246613,0.25147249433071428015,0.73119999999999996110,0.15679999999999999494,0.57440000000000002167,0.08959999999999998521,0.08414478451909254697,0.22720000000000001306,-0.04486503499328646505,0.40639999999999998348,0.16285345224707253875,0.01596876373644426361,0.24959999999999998854,0.32480000000000003313,5.56944629432012217052,0.21452202603887995935,0.78547797396111995738,0.12251519391968830608,0.31085938250264094629,0.55600423920648633924,0.34148221316760646316,0.44399576079351366076,0.08799999999999999489,0.12043186058635498015,0.15040000000000000591,0.20563258838539733020,0.23840000000000000080,0.32606444897175235198,1.70909090909090899402,0.06400000000000000133,0.08758680769916725450,0.09919999999999999651,0.13566134707988641850,0.16320000000000001172,0.22324815477905363137,1.55000000000000004441,0.04000000000000000083,0.05474175481197953580,0.05919999999999999568,0.08096898108134062411,0.09919999999999999651,0.13571073589332013909,1.47999999999999998224,1.07529651962479966265,5.24165187464605608625,12.79135097676295096392,5.15758061000557166409,6.31694839427085508277,17.94893158676851996347,0.17081437125924031628,0.82918562874075973923,0.71244603698858632868,0.28755396301141367132,0.26048465163267514599,0.73951534836732490952,1.08005102215177561931,0.34624621252900461554,0.01131929990211878734,-0.01394382777267380059,-0.00946099882774494895,-0.00819284280996656136,0.00463047315955023540,0.18246401992847979812,0.88706661123829277926,0.78115606012579819062,0.75888140644460266859,0.11853210226133334415,-1.23237396680552735440,-0.84213679280917452807,-0.72951593542970538664,0.40969547418177709730,4.87239992710715608126,4.32608316291438121937,4.20659422685438499911,0.64520895921933552053,0.04479999999999999261,0.08640000000000000457,0.04320000000000000229,0.00960000000000000089,0.17120000000000001883,0.06124511256533728132,0.11823405838855279015,0.05925933928742917883,0.01314615316019810375,0.23398447682155545935,0.11200000000000001621,0.02560000000000000123,0.01759999999999999759,0.02720000000000000195,0.19839999999999999303,0.15327691347354271967,0.03504285508498991564,0.02421648420243925973,0.03736263736263736174,0.27134711418419288353,-0.07041671274842445372,-0.01031941466059797287,0.33927876143335256032,0.05203206074113832930
X1002,X1002_5,116.13162570574851883975,65.32287586951504465560,38.00000000000000000000,0.01929276887586308872,0.01220648800900099411,78.94736842105263008307,95.00000000000000000000,0.91783840799125226972,4.00000000000000000000,0.87398022613466730402,28.00000000000000000000,0.86088247419173580255,19.00000000000000000000,0.85969418756231008594,15.00000000000000000000,0.75420841265304272572,11.00000000000000000000,2.05882352941176449690,0.58823529411764707842,0.58823529411764685637,0.58823529411764718944,1.17647058823529437888,2.22222222222222232091,2.53968253968253954156,2.53968253968253865338,0.47619047619047633058,0.31746031746031749821,0.31746031746031716514,0.31746031746031749821,0.31746031746031749821,0.31746031746031749821,0.63492063492063499641,17.00000000000000000000,0.00000000000000000000,0.58823529411764707842,1.17647058823529371274,1.17647058823529437888,2.05882352941176494099,1.74603174603174604584,0.79365079365079360674,3.80952380952380798007,2.06349206349206415467,1.58730158730158765756,0.00000000000000000000,0.00000000000000000000,0.00000000000000000000,0.00000000000000000000,0.00000000000000000000,10.00000000000000000000,1.17647058823529415683,0.29411764705882353921,0.29411764705882342819,1.17647058823529437888,2.05882352941176494099,0.31746031746031744269,0.15873015873015872135,0.15873015873015866584,0.31746031746031749821,1.74603174603174648993,4.60317460317459836716,1.90476190476190532230,0.79365079365079382878,0.00000000000000000000,0.00000000000000000000,6.00000000000000000000,1.47058823529411775155,0.88235294117647056211,0.58823529411764685637,0.29411764705882359472,1.76470588235294156831,0.00000000000000000000,0.00000000000000000000,0.00000000000000000000,0.00000000000000000000,0.00000000000000000000,1.26984126984126866056,5.23809523809523902571,2.22222222222222276500,0.47619047619047633058,0.79365079365079382878,21.00000000000000000000,1.47058823529411775155,0.88235294117647056211,0.58823529411764685637,1.17647058823529437888,0.88235294117647078416,0.00000000000000000000,0.00000000000000000000,0.00000000000000000000,0.63492063492063499641,4.12698412698412830935,3.80952380952380620371,0.95238095238095266115,0.15873015873015874910,0.15873015873015874910,0.15873015873015874910,16.00000000000000000000,-0.00368187972749532558,-0.02732199465213791534,-0.12312650163437846573,-0.22272852213007135469,-0.26696741168841703340,-0.20821153343431902938,-0.01554143547694184987,0.04380695728183576360,0.17720852650715368526,0.34589702428383956034,0.50268685849834615631,0.64690669065885564315,0.73857927208368923111,0.78239749241855571782,0.73823388855801475028,0.66698642937646712703,0.59905019608394938224,0.59348316933077138735,0.61125406375391588831,0.67927921517532940943,0.74487595013755392159,0.81937344009698453995,0.86144566278964074257,0.92163614166033236419,0.94177019053622235134,0.21994097702468407007,0.75200000000000000178,0.15840000000000001301,0.59360000000000001652,0.08799999999999999489,0.09126480536405710831,0.22240000000000001434,-0.04568342330855328093,0.41760000000000002673,0.19514092412776573582,0.01360937245036742890,0.25919999999999998597,0.33440000000000003055,5.04569587716350120843,0.21078217616470462659,0.78921782383529526239,0.11713898809937876855,0.29627048058952565324,0.55555689382059425530,0.34477471765588968422,0.44444310617940568919,0.08799999999999999489,0.11713898809937876855,0.16160000000000002141,0.21446819533634506327,0.24959999999999998854,0.33160718343572381794,1.83636363636363642016,0.06560000000000000553,0.08725384701510582874,0.10559999999999999942,0.14033847505361340957,0.17120000000000001883,0.22759232206871926607,1.61111111111111116045,0.04320000000000000229,0.05752907248295202614,0.06079999999999999988,0.08090791345267742130,0.10400000000000000910,0.13843698593562944743,1.42666666666666674956,1.10089140275612029640,6.02461731665837341154,14.64306714183111957084,5.42291121369845807720,7.12550871941449504021,20.06597835552958031258,0.15497627263916241569,0.84502372736083763982,0.72842548939831996968,0.27157451060168008583,0.26256869674892602262,0.73743130325107386636,1.07826424638704532200,0.34657668975022259961,0.01218177427800791815,-0.01493806335327079252,-0.01267629740416871195,-0.01085149452831586300,0.00425025307101626042,0.19203147516970678343,0.96861680996912247199,0.97580347112749898919,0.95910253605849360437,0.15282132555278665764,-1.22641423871952159885,-1.04095514744657746675,-0.89119880719598865149,0.34934163309616650395,5.07543963660396890702,5.11380670336317599833,5.02537449931331536845,0.79365884461478430900,0.04320000000000000229,0.08799999999999999489,0.01920000000000000179,0.00800000000000000017,0.20640000000000000013,0.05741211341862454548,0.11713898809937876855,0.02558207572857599740,0.01064899891812534291,0.27435543656921845823,0.11519999999999999685,0.02720000000000000195,-0.00800000000000000017,0.00000000000000000000,0.20640000000000000013,0.15337006274608008805,0.03623107464670134725,-0.01064899891812534291,0.00000000000000000000,0.27435543656921845823,0.35639808282687807095,-0.01281153233531391253,0.70573971592304451939,0.00047050744875649946
X1002,X1002_6,121.63669644539450587217,69.65188884241578648471,36.00000000000000000000,0.01223004976260248788,0.01309932360562995370,81.52173913043478137297,92.00000000000000000000,0.93228164315080630509,3.00000000000000000000,0.87781764791066474451,28.00000000000000000000,0.86460403319952550127,19.00000000000000000000,0.84188702885784272301,14.00000000000000000000,0.75112137461752048750,10.00000000000000000000,2.05882352941176449690,0.58823529411764707842,0.58823529411764685637,0.58823529411764718944,1.17647058823529437888,2.38095238095238093123,1.42857142857142860315,3.33333333333333259318,0.47619047619047633058,0.31746031746031749821,0.31746031746031716514,0.31746031746031749821,0.31746031746031749821,0.47619047619047633058,0.63492063492063499641,17.00000000000000000000,0.00000000000000000000,0.58823529411764707842,1.17647058823529371274,1.17647058823529437888,2.05882352941176494099,1.90476190476190465617,0.95238095238095232808,4.60317460317460103170,1.58730158730158765756,0.95238095238095266115,0.00000000000000000000,0.00000000000000000000,0.00000000000000000000,0.00000000000000000000,0.00000000000000000000,10.00000000000000000000,1.17647058823529415683,0.29411764705882353921,0.29411764705882342819,1.17647058823529437888,2.05882352941176494099,0.31746031746031744269,0.15873015873015872135,0.15873015873015866584,0.31746031746031749821,1.90476190476190532230,4.44444444444444108910,2.22222222222222276500,0.47619047619047633058,0.00000000000000000000,0.00000000000000000000,6.00000000000000000000,1.47058823529411775155,0.58823529411764707842,0.58823529411764685637,0.58823529411764718944,1.76470588235294156831,0.00000000000000000000,0.00000000000000000000,0.00000000000000000000,0.00000000000000000000,0.00000000000000000000,1.11111111111111027228,4.28571428571428647558,3.33333333333333436954,0.63492063492063499641,0.63492063492063499641,3.00000000000000000000,1.47058823529411775155,0.58823529411764707842,0.88235294117647022905,1.17647058823529437888,0.88235294117647078416,0.00000000000000000000,0.00000000000000000000,0.00000000000000000000,0.47619047619047633058,3.96825396825396925493,4.76190476190475742158,0.47619047619047633058,0.00000000000000000000,0.15873015873015874910,0.15873015873015874910,15.00000000000000000000,-0.00254703531337456242,-0.02721284124266545174,-0.12508577837089654428,-0.22045206159989988448,-0.26146883072768306588,-0.19163617818732237019,-0.00986547492469465846,0.04715583940346062403,0.16496960001138225027,0.31398012898757754474,0.45070216569827287190,0.58405422823478125860,0.67608785190581055513,0.72711904158402174136,0.69738133316755834823,0.64488943626908912243,0.58858818088551922987,0.58636007466988826486,0.60694749758769384052,0.67366654815903570519,0.73287831572400052860,0.80545609259875194930,0.84898425008282651927,0.90381928970135372303,0.92142106111662513968,0.23727615647417191203,0.77200000000000001954,0.16000000000000000333,0.61200000000000009948,0.08799999999999999489,0.08280918621017528680,0.22200000000000000289,-0.03745128234907932341,0.41799999999999998268,0.25633114789814126500,0.00832324864649600094,0.25800000000000000711,0.35399999999999998135,3.73405625469389335080,0.20776665276039490982,0.79223334723960503467,0.11427165901821721705,0.28837331386455289373,0.54236649979140594269,0.33459984703101097736,0.45763350020859405731,0.09600000000000000200,0.12465999165623695144,0.29000000000000003553,0.37035808649701018602,0.38600000000000000977,0.49501807815324716522,3.02083333333333303727,0.07199999999999999456,0.09349499374217773440,0.12199999999999999734,0.15799819218467528459,0.19400000000000000577,0.25149318592685299123,1.69444444444444441977,0.04800000000000000100,0.06232999582811847572,0.06800000000000000488,0.08805764149631484239,0.11599999999999999201,0.15038763732443333199,1.41666666666666651864,1.06988807955457243537,5.74418333594646224327,14.38859948353070628002,5.17161159877919374139,6.81407141550103467864,19.56021108230989824506,0.15693524464638031191,0.84306475535361968809,0.73554814358075437664,0.26445185641924562336,0.25862050594824842475,0.74137949405175163076,0.99751738675692824820,0.36389936569214526019,0.01111897364906090993,-0.01311276282495815737,-0.00464884867436378413,-0.00386505769572650926,0.00363141883084923400,0.21394006470284701593,0.93012989907663645717,0.69796380503440969001,0.65056716677333437104,0.23858064843912957231,-1.17890771661845539242,-0.41157797791320765990,-0.34208846601605386040,0.32611238844969903106,4.36818247868022968561,3.33045914308822865735,3.11523888056874875829,1.11201240736256612429,0.04000000000000000083,0.08799999999999999489,0.08599999999999999312,0.01600000000000000033,0.13200000000000000622,0.05194166319009872745,0.11427165901821721705,0.11048289528577387442,0.02060944235850368372,0.17282888332638018936,0.11999999999999999556,0.03200000000000000067,0.05399999999999999245,0.07000000000000000666,0.20200000000000001288,0.15582498957029622400,0.04155333055207898613,0.06892956473369490911,0.08953900709219858589,0.26236789041857877525,-0.75135366113889290318,-0.00683813515765891583,-0.42524127268919381661,0.11310113772030080947
X1002,X1002_7,119.38663203973189297358,67.60369372597666881575,39.00000000000000000000,0.01292878519468964281,0.00833501699503939701,78.94736842105263008307,95.00000000000000000000,0.91938721946443313637,79.00000000000000000000,0.87546212830814129635,29.00000000000000000000,0.86024749911245934619,19.00000000000000000000,0.86610015271356322053,15.00000000000000000000,0.74829103285850251392,11.00000000000000000000,2.05882352941176449690,0.58823529411764707842,0.58823529411764685637,0.58823529411764718944,1.17647058823529437888,2.38095238095238093123,2.22222222222222232091,2.85714285714285631812,0.47619047619047633058,0.31746031746031749821,0.15873015873015858257,0.31746031746031749821,0.31746031746031749821,0.31746031746031749821,0.63492063492063499641,17.00000000000000000000,0.00000000000000000000,0.58823529411764707842,1.17647058823529371274,1.17647058823529437888,2.05882352941176494099,1.74603174603174604584,0.63492063492063488539,2.06349206349206237832,3.65079365079365159019,1.11111111111111138250,0.79365079365079294060,0.00000000000000000000,0.00000000000000000000,0.00000000000000000000,0.00000000000000000000,10.00000000000000000000,1.17647058823529415683,0.29411764705882353921,0.29411764705882342819,1.17647058823529437888,2.05882352941176494099,0.31746031746031744269,0.15873015873015872135,0.31746031746031733167,0.15873015873015874910,1.90476190476190532230,4.28571428571428203469,1.42857142857142882519,1.42857142857142882519,0.00000000000000000000,0.00000000000000000000,6.00000000000000000000,1.47058823529411775155,0.58823529411764707842,0.88235294117647022905,0.29411764705882359472,1.76470588235294156831,0.00000000000000000000,0.00000000000000000000,0.00000000000000000000,0.00000000000000000000,0.63492063492063499641,0.63492063492063433028,3.33333333333333436954,3.65079365079365159019,0.95238095238095266115,0.79365079365079382878,20.00000000000000000000,1.17647058823529415683,1.17647058823529415683,0.58823529411764685637,1.17647058823529437888,0.88235294117647078416,0.00000000000000000000,0.00000000000000000000,0.00000000000000000000,0.47619047619047633058,4.60317460317460369623,3.49206349206348898306,0.95238095238095266115,0.15873015873015874910,0.15873015873015874910,0.15873015873015874910,16.00000000000000000000,-0.00359027692560877918,-0.02267331738987380871,-0.09346459089995366731,-0.18228179466800825681,-0.22866163490134344682,-0.18082988052831300285,-0.01371876659764069764,0.04842970521293603336,0.19417660699720146189,0.37746241041548039830,0.54789487300216421772,0.69393096826315370240,0.77395061721748770189,0.78194027142276156805,0.70038102558575143775,0.60756984710260830695,0.54569890595729364513,0.55676453845851003877,0.59990151474886788119,0.68252160268973649515,0.75563487374568061306,0.82911183673607635747,0.87329343251619895305,0.92629613554644596451,0.94743249298905962696,0.23554058807201908032,0.78000000000000002665,0.17400000000000001577,0.60599999999999998312,0.10399999999999999523,0.04976839956642159501,0.24399999999999999467,-0.02684261103696869433,0.42799999999999993605,0.51960284108748444609,0.00964034966108193170,0.25400000000000000355,0.35200000000000003508,1.83671301047842749909,0.22202620967741937275,0.77797379032258073828,0.13168309438470729433,0.31199596774193544269,0.54849910394265233293,0.32647289426523296019,0.45150089605734766707,0.17400000000000001577,0.22202620967741937275,0.59799999999999997602,0.76767846475507761639,0.77200000000000001954,0.98970467443249698913,3.48221943748259565865,0.10799999999999999878,0.13913157108721624367,0.43399999999999999689,0.55846774193548387455,0.54200000000000003730,0.69759931302270006270,4.02197802197802189994,0.05999999999999999778,0.07735961768219833112,0.09199999999999999845,0.11825156810035841737,0.15199999999999999623,0.19561118578255676237,1.54464285714285720630,0.77882564107389096186,3.37311741420559929594,7.97944398806733534713,3.43384090084805482235,4.15194305527949047985,11.41328488891538839312,0.18636328783748970506,0.81363671216251032270,0.69783047897861627540,0.30216952102138383562,0.26759763285747661943,0.73240236714252349159,1.11784832780309750788,0.33219957262885074778,0.00667922892061328932,-0.00813098107125570513,-0.00697860057593824301,-0.00602990361416166909,0.00269362181513628507,0.51903968285863300025,0.94617274460097811062,0.95120251037164005314,0.94204213970480699114,0.48720251079797755045,-1.21785746049989263007,-1.04419628765509964197,-0.90184981425833143920,0.40424749231350992629,1.82315668559787180669,1.83281024649716739461,1.81507061551281623224,0.93860243716588620533,0.05800000000000000294,0.08799999999999999489,0.02000000000000000042,0.00800000000000000017,0.19600000000000000755,0.07259931302270011821,0.11324858124253285585,0.02588298984468339475,0.01029532556750298658,0.25209080047789722556,0.11599999999999999201,0.02799999999999999711,-0.00800000000000000017,0.00000000000000000000,0.19600000000000000755,0.14942689665471922678,0.03617831541218638480,-0.01029532556750298658,0.00000000000000000000,0.25209080047789722556,0.32394114910002846930,-0.00707523289779938246,0.72818864141353822905,0.00049415581148573129
X1002,X1002_8,121.72956388086409162952,66.92871209979924174149,33.00000000000000000000,0.03868091026372478397,0.02068371368150257947,73.17073170731707421055,102.50000000000000000000,0.92927620083087991709,1.00000000000000000000,0.84975294758344688262,28.00000000000000000000,0.84115601355893576674,20.00000000000000000000,0.85157563412476178222,15.00000000000000000000,0.71605969500385491244,12.00000000000000000000,2.05882352941176449690,0.58823529411764707842,0.58823529411764685637,0.58823529411764718944,1.17647058823529437888,2.53968253968253954156,0.95238095238095232808,3.49206349206349075942,0.63492063492063499641,0.31746031746031749821,0.31746031746031716514,0.31746031746031749821,0.31746031746031749821,0.47619047619047633058,0.63492063492063499641,17.00000000000000000000,0.00000000000000000000,0.88235294117647056211,1.17647058823529371274,0.88235294117647078416,2.05882352941176494099,1.74603174603174604584,0.63492063492063488539,2.22222222222222143273,3.65079365079365159019,1.74603174603174648993,0.00000000000000000000,0.00000000000000000000,0.00000000000000000000,0.00000000000000000000,0.00000000000000000000,10.00000000000000000000,0.88235294117647056211,0.58823529411764707842,0.29411764705882342819,1.47058823529411797360,1.76470588235294156831,0.31746031746031744269,0.15873015873015872135,0.15873015873015866584,0.31746031746031749821,1.58730158730158765756,4.92063492063491647599,1.90476190476190532230,0.63492063492063499641,0.00000000000000000000,0.00000000000000000000,6.00000000000000000000,1.47058823529411775155,0.58823529411764707842,0.58823529411764685637,0.58823529411764718944,1.76470588235294156831,0.00000000000000000000,0.00000000000000000000,0.00000000000000000000,0.00000000000000000000,0.00000000000000000000,1.26984126984126866056,6.03174603174603252143,1.26984126984126999282,0.63492063492063499641,0.79365079365079382878,20.00000000000000000000,1.17647058823529415683,0.88235294117647056211,1.17647058823529371274,0.88235294117647078416,0.88235294117647078416,0.00000000000000000000,0.00000000000000000000,0.00000000000000000000,0.15873015873015874910,3.96825396825396925493,5.39682539682539275105,0.00000000000000000000,0.15873015873015874910,0.15873015873015874910,0.15873015873015874910,16.00000000000000000000,-0.00128549694301443185,-0.00887937577507668871,-0.05703197356738660961,-0.14479127485425663524,-0.20293617446611394994,-0.16206806977011262161,-0.00594980735933028654,0.06823968838255144165,0.21009041724748253599,0.37321111275667301355,0.51634849281514383357,0.63567413531151806261,0.69919256510908933677,0.69641093967524614339,0.62620679720179250882,0.56711077176933155641,0.54361413685842663313,0.57624193865408057658,0.63097468026802028263,0.70743541422512146166,0.76650797096685541199,0.82683677465258165196,0.86445615217874460789,0.90622954083421181082,0.92749510633479093080,0.20259320098903763063,0.84000000000000007994,0.19360000000000002207,0.64640000000000008562,0.12479999999999998039,0.07089332384685494148,0.26080000000000003180,-0.03497398227573469270,0.45759999999999995124,0.34501628844460363599,0.00969389148914178225,0.26400000000000001243,0.38240000000000001767,2.77694845755708152879,0.22923040342395184510,0.77076959657604826592,0.14699743732001796515,0.30979190334029038656,0.54467605435347377085,0.31544565092952192575,0.45532394564652634017,0.11519999999999999685,0.13788803466222820937,0.48159999999999997256,0.57310154729509565907,0.59679999999999999716,0.71098958195732397947,4.18190476190476267959,0.07359999999999999876,0.08820550756034625794,0.13280000000000000138,0.15805659031465482678,0.20640000000000000013,0.24626209787500111248,1.81111111111111111605,0.04800000000000000100,0.05745687036009616833,0.07359999999999999876,0.08798710734194606364,0.12159999999999999976,0.14544397770204223197,1.53333333333333343695,1.32263690016838952879,4.88113478233073472268,13.33008413215696563725,5.75176854483440802568,6.20377168249912447351,19.08185267699137455111,0.20377844704573341850,0.79622155295426666477,0.70063296096273386393,0.29936703903726613607,0.24525327342143712905,0.75474672657856289870,1.07552561331256080202,0.33061173056800785552,0.00930538980667527417,-0.01153801765791695466,-0.00296221942847288986,-0.00253356892203673292,0.00326321516799490952,0.33614896673678684724,0.94041792136755530951,0.66811972796549023990,0.61700229590255983858,0.31390156197267643501,-1.24050640979860782309,-0.33519809415826601340,-0.28703032429663677405,0.35268445224128508464,2.81723887299190645095,1.99888497722444857807,1.84619181630092255020,0.94072065272272786807,0.07999999999999998779,0.08799999999999999489,0.09759999999999999232,0.02080000000000000251,0.11520000000000001072,0.09336257078192562731,0.10533759566017630860,0.11104418201192393922,0.02399055947443044096,0.14368973078650498776,0.11359999999999999265,0.02560000000000000123,0.07199999999999999456,0.09279999999999999361,0.20800000000000001821,0.13586783264202617616,0.03053023698184988491,0.08051394503007405778,0.10450450450450450568,0.24819423529100950732,-0.97096244358499039784,-0.00503402786942073154,-0.61827799134370520218,0.14788041983064101337
X1002,X1002_9,126.73391344658935508960,70.11926288380149685509,33.00000000000000000000,0.01902094796729429660,0.01507724231446843678,73.17073170731707421055,102.50000000000000000000,0.92367629218644664579,4.00000000000000000000,0.85175009197073503486,28.00000000000000000000,0.84022463761401411375,19.00000000000000000000,0.81483314390684569162,15.00000000000000000000,0.71597879617747772762,12.00000000000000000000,2.18750000000000000000,0.62500000000000000000,0.62499999999999977796,0.62500000000000011102,0.93750000000000022204,2.50000000000000000000,0.93750000000000000000,3.28124999999999911182,0.62500000000000011102,0.31250000000000005551,0.46874999999999961142,0.46875000000000011102,0.31250000000000005551,0.31250000000000005551,0.78125000000000022204,16.00000000000000000000,0.00000000000000000000,0.93750000000000000000,0.62499999999999977796,1.25000000000000022204,2.18750000000000044409,1.71875000000000000000,0.93750000000000000000,4.99999999999999822364,1.56250000000000044409,0.62500000000000011102,0.15624999999999986122,0.00000000000000000000,0.00000000000000000000,0.00000000000000000000,0.00000000000000000000,10.00000000000000000000,0.93750000000000000000,0.31250000000000000000,0.31249999999999988898,1.56250000000000044409,1.87500000000000044409,0.46875000000000000000,0.15625000000000000000,0.15624999999999994449,0.15625000000000002776,1.25000000000000022204,5.31249999999999555911,2.50000000000000044409,0.00000000000000000000,0.00000000000000000000,0.00000000000000000000,6.00000000000000000000,1.56250000000000000000,0.62500000000000000000,0.62499999999999977796,0.31250000000000005551,1.87500000000000044409,0.00000000000000000000,0.00000000000000000000,0.00000000000000000000,0.00000000000000000000,0.00000000000000000000,1.09374999999999911182,7.18750000000000177636,0.62500000000000011102,0.31250000000000005551,0.78125000000000022204,3.00000000000000000000,1.56250000000000000000,0.62500000000000000000,0.93749999999999966693,1.25000000000000022204,0.62500000000000011102,0.00000000000000000000,0.00000000000000000000,0.00000000000000000000,0.00000000000000000000,4.21875000000000088818,5.15624999999999555911,0.00000000000000000000,0.15625000000000002776,0.31250000000000005551,0.15625000000000002776,15.00000000000000000000,-0.00451869589103619934,-0.01784242261297077151,-0.08732904156587199818,-0.17904847797220518890,-0.22888220464775885232,-0.17923808713228872591,-0.00785916202207397573,0.05885177355008523042,0.18094086897391223334,0.31773189843826837864,0.43463631476531927600,0.54141875619544121978,0.60469029110632155355,0.62099250864430410868,0.57788157360607184110,0.54239416438785226227,0.52628317873062147036,0.55991743409932404063,0.60809392658570848855,0.68150156790128657569,0.73636965357602257587,0.79585931389708142181,0.83033732233131052336,0.87440442178770783066,0.89213039511242731017,0.20450175640661669152,0.85599999999999998312,0.18400000000000002465,0.67200000000000004174,0.11199999999999998845,0.05069749270702354066,0.23999999999999999112,-0.02216771161114298658,0.44533333333333330328,0.53575896935433320323,0.00421142693525218981,0.26133333333333336190,0.41066666666666667984,1.76941792931551056256,0.21344444444444443665,0.78655555555555556335,0.12819444444444444420,0.27974999999999999867,0.52255555555555555092,0.30911111111111111427,0.47744444444444439357,0.18400000000000002465,0.21344444444444443665,0.66400000000000003464,0.77708333333333323711,0.84799999999999997602,0.99052777777777778478,3.65862068965517250874,0.10399999999999999523,0.12313888888888886719,0.42933333333333334458,0.50802777777777785584,0.53333333333333332593,0.63116666666666665364,4.12820512820512774965,0.05866666666666666557,0.06897222222222222643,0.10399999999999999523,0.12313888888888886719,0.16266666666666665386,0.19211111111111112137,1.77976190476190487821,0.62331561615475639115,3.47056436117550504150,9.39313363773251630562,3.66105590862293039933,4.09387997733026143266,13.05418954635544537268,0.15191107158124911303,0.84808892841875083146,0.71976912215829924602,0.28023087784170075398,0.23880535906627611831,0.76119464093372390945,1.04643834125752399622,0.34297190711746655678,0.00669966959167648656,-0.00803959043462528465,-0.00169735227084670082,-0.00145813537626404699,0.00197009266383089488,0.48708323120320667909,0.94013250936890602194,0.76254407020364434189,0.71268306942626047373,0.52753093789515592693,-1.20056223353513469299,-0.27012901112935955306,-0.23195328025623870860,0.29481941186473858973,1.93074177659750390035,1.57098054300524214710,1.47009992607142669918,1.08310892028155136835,0.06400000000000000133,0.09333333333333333759,0.09600000000000001588,0.02666666666666666838,0.11466666666666665286,0.07136111111111111127,0.11099999999999998757,0.10894444444444445486,0.03013888888888889214,0.14161111111111110428,0.11999999999999999556,0.02666666666666666838,0.06933333333333334403,0.09599999999999998812,0.21066666666666666874,0.14208333333333333925,0.03108333333333333434,0.07786111111111111704,0.10799999999999998490,0.24961111111111108918,-0.99329935401427482677,-0.00317070555631927950,-0.69847994214953634806,0.14240066887999072720
X1002,X1002_10,118.93139233116257003076,69.15619624220107652945,38.00000000000000000000,0.01332896268165356495,0.01006904326560457107,80.21390374331551242904,93.50000000000000000000,0.91855683146499644831,3.00000000000000000000,0.88143782123109848392,29.00000000000000000000,0.86943887695277233263,20.00000000000000000000,0.85408988088717452403,15.00000000000000000000,0.73913250562239507513,11.00000000000000000000,2.05882352941176449690,0.58823529411764707842,0.58823529411764685637,0.58823529411764718944,1.17647058823529437888,2.22222222222222232091,1.90476190476190465617,3.17460317460317353877,0.31746031746031749821,0.47619047619047633058,0.15873015873015858257,0.31746031746031749821,0.31746031746031749821,0.31746031746031749821,0.79365079365079382878,17.00000000000000000000,0.00000000000000000000,0.58823529411764707842,1.17647058823529371274,0.88235294117647078416,2.35294117647058875775,1.74603174603174604584,0.79365079365079360674,3.65079365079364936975,1.90476190476190532230,1.58730158730158765756,0.31746031746031716514,0.00000000000000000000,0.00000000000000000000,0.00000000000000000000,0.00000000000000000000,10.00000000000000000000,0.88235294117647056211,0.58823529411764707842,0.29411764705882342819,1.17647058823529437888,2.05882352941176494099,0.31746031746031744269,0.31746031746031744269,0.15873015873015866584,0.31746031746031749821,2.06349206349206415467,3.96825396825396481404,1.58730158730158765756,1.26984126984126999282,0.00000000000000000000,0.00000000000000000000,6.00000000000000000000,1.17647058823529415683,1.17647058823529415683,0.58823529411764685637,0.29411764705882359472,1.76470588235294156831,0.00000000000000000000,0.00000000000000000000,0.00000000000000000000,0.00000000000000000000,0.47619047619047633058,0.79365079365079294060,3.49206349206349297987,3.65079365079365159019,0.63492063492063499641,0.95238095238095266115,3.00000000000000000000,1.17647058823529415683,0.88235294117647056211,0.88235294117647022905,1.17647058823529437888,0.88235294117647078416,0.00000000000000000000,0.00000000000000000000,0.00000000000000000000,0.31746031746031749821,3.96825396825396925493,4.12698412698412298028,1.11111111111111138250,0.15873015873015874910,0.15873015873015874910,0.15873015873015874910,16.00000000000000000000,0.00420275144495575476,-0.01496228634405674662,-0.09424542357506145163,-0.18355526032117672197,-0.22950320450016786777,-0.17286588795925889039,-0.00944156862858668185,0.04921816762116805466,0.18076481345679823454,0.34105045566020347758,0.49172278360216231663,0.62573049025650573363,0.71457711788460043234,0.75084287078515310476,0.70038603661584719617,0.61922185572152188549,0.54552507514658921117,0.53663735152264935291,0.56295655428905799766,0.63794471612234826541,0.71413625308664052671,0.79330040345425278936,0.84673760205680825841,0.90105720871549244144,0.92600735785759691332,0.24722813183708408635,0.74719999999999997531,0.15679999999999999494,0.59040000000000003588,0.08640000000000000457,0.07918865961326346237,0.22399999999999997691,-0.03978117811469725901,0.41120000000000000995,0.26545670199390991595,0.01342696433360641116,0.25440000000000001501,0.33600000000000002087,3.50352977055412528884,0.20998958214090804320,0.79001041785909187354,0.11568401631296310050,0.30003549010094765492,0.55052750012725071294,0.34053791798634269750,0.44947249987274923155,0.09600000000000000200,0.12857763386988402265,0.26719999999999999307,0.35518648365279092971,0.36320000000000002283,0.48376411752267489685,2.78333333333333365900,0.06880000000000000004,0.09224371015784182948,0.11360000000000000653,0.15193112504942199448,0.18239999999999997882,0.24417483520726382396,1.66388888888888897277,0.04480000000000000648,0.06009930169037083075,0.06720000000000000973,0.08990793782449386928,0.11200000000000001621,0.15000723951486469310,1.52000000000000001776,0.95815467296787348861,5.21201280793702892424,13.02603824405118793095,5.52403979661861121997,6.17016748090490274592,18.55007804066979559821,0.15541776390703992972,0.84458223609296001477,0.70297541364855065105,0.29702458635144934895,0.25030906143869824376,0.74969093856130175624,1.02261803321936883826,0.35255912042123271899,0.01060936115247841996,-0.01282074822338392581,-0.00574597761407313889,-0.00488770938829670171,0.00403111134884726573,0.23588076453869791238,0.91664981810212020630,0.73197087720035158842,0.68705073668054006397,0.22645552529225515537,-1.20994144471573195077,-0.55367665445806057978,-0.47109522121188474042,0.38129208246786433500,3.93306646739797383105,3.16965883430640493756,2.98251253078656608508,0.96714359548342065942,0.04160000000000000503,0.08959999999999998521,0.06719999999999999585,0.01600000000000000033,0.14400000000000001688,0.05567927727034640423,0.11996809420528842249,0.08866359999018361138,0.02115568898173578183,0.19429014265462701827,0.11519999999999999685,0.02560000000000000123,0.04160000000000000503,0.05760000000000000536,0.20160000000000000142,0.15431030487056163203,0.03434221066527320260,0.05432138932491040878,0.07547707830664618367,0.26976722096127325745,-0.56646165151365102108,-0.00739799146197462915,-0.18516956904578668608,0.09453610863744046910
X1002,X1002_11,121.21524643332193704737,67.58340191822225051510,33.00000000000000000000,0.02666925452922035145,0.01978391948306918932,73.52941176470588402481,102.00000000000000000000,0.90921987138426096919,4.00000000000000000000,0.85746538868732269378,28.00000000000000000000,0.83750043800612350431,19.00000000000000000000,0.81577499655327012640,15.00000000000000000000,0.72605712533623989469,12.00000000000000000000,2.05882352941176449690,0.58823529411764707842,0.58823529411764685637,0.58823529411764718944,1.17647058823529437888,2.53968253968253954156,2.06349206349206371058,2.85714285714285631812,0.31746031746031749821,0.31746031746031749821,0.31746031746031716514,0.31746031746031749821,0.15873015873015874910,0.31746031746031749821,0.79365079365079382878,17.00000000000000000000,0.00000000000000000000,0.58823529411764707842,0.88235294117647022905,1.17647058823529437888,2.35294117647058875775,1.58730158730158721347,0.63492063492063488539,2.06349206349206237832,3.80952380952381064461,1.42857142857142882519,0.47619047619047577546,0.00000000000000000000,0.00000000000000000000,0.00000000000000000000,0.00000000000000000000,10.00000000000000000000,0.88235294117647056211,0.29411764705882353921,0.58823529411764685637,1.17647058823529437888,2.05882352941176494099,0.47619047619047616404,0.15873015873015872135,0.15873015873015866584,0.31746031746031749821,1.74603174603174648993,4.44444444444444108910,1.58730158730158765756,1.11111111111111138250,0.00000000000000000000,0.00000000000000000000,6.00000000000000000000,1.47058823529411775155,0.58823529411764707842,0.58823529411764685637,0.58823529411764718944,1.76470588235294156831,0.00000000000000000000,0.00000000000000000000,0.00000000000000000000,0.00000000000000000000,0.31746031746031749821,0.95238095238095155093,4.12698412698412830935,2.85714285714285765039,0.79365079365079382878,0.95238095238095266115,3.00000000000000000000,1.47058823529411775155,0.58823529411764707842,0.88235294117647022905,1.17647058823529437888,0.88235294117647078416,0.00000000000000000000,0.00000000000000000000,0.00000000000000000000,0.00000000000000000000,4.28571428571428647558,4.60317460317459836716,0.63492063492063499641,0.15873015873015874910,0.15873015873015874910,0.15873015873015874910,16.00000000000000000000,-0.00188729724162184885,-0.01761284051000572282,-0.08544024078376621922,-0.17745569807999780898,-0.23039111041742932340,-0.18454174451414126490,-0.01197045290608277773,0.05538443716902238106,0.20246982436262739302,0.37969696958400195319,0.53866067353930890960,0.67527713946259559918,0.75083379335046218639,0.75903632174301405300,0.69014343602200012295,0.61747320453400611484,0.56820986732471645553,0.58337662930104094983,0.62613377440667927765,0.69958139594169743702,0.76370635482832049945,0.83235046562807057935,0.86894001683176058659,0.91509620949767678244,0.93510493926388615904,0.19513612237375627112,0.81200000000000005507,0.17800000000000001932,0.63400000000000000799,0.10799999999999998490,0.08527349603749695417,0.24399999999999999467,-0.04397329102894401154,0.43399999999999994138,0.19911773162322493613,0.01424294838369392219,0.25600000000000000533,0.37800000000000005818,4.68685208716440726562,0.21925840855362130344,0.78074159144637866881,0.13243798164010930907,0.30145576202757057294,0.53686388965644282756,0.31760548110282149636,0.46313611034355711693,0.08999999999999999667,0.11163717340579043524,0.16200000000000000511,0.19917104172423322206,0.25200000000000000178,0.31080821513002365730,1.80113636363636375748,0.06600000000000000311,0.08181050627859139113,0.10200000000000000733,0.12604368149580913450,0.16800000000000001044,0.20785418777440053950,1.54861111111111116045,0.04599999999999999922,0.05699375978631297801,0.05799999999999999600,0.07182769948727395215,0.10399999999999999523,0.12882145927358690241,1.26666666666666660745,1.25738851127768880289,5.78146494860913318092,13.80659564639781855533,6.05651089969623424025,7.03885345988682242790,19.86310654609405190740,0.17762756728685552554,0.82237243271314452997,0.69423455862524552362,0.30576544137475442087,0.26182113763365244541,0.73817886236634755459,1.13219089659515725899,0.32591607252626281221,0.01136331305013336609,-0.01387563115342113629,-0.00473622852456770382,-0.00404329851710016897,0.00423300801751625919,0.17275930254218729853,0.90741721595668878297,0.63629842190432406301,0.57489063992078226484,0.15101728179247214667,-1.22193316047717859263,-0.43600317905909641292,-0.37279430040768180010,0.37413868776033465391,5.28890189200788274348,3.82257246754954183032,3.48277160034292876389,0.86868771333002836599,0.06000000000000000472,0.08799999999999999489,0.08400000000000000522,0.02000000000000000389,0.12600000000000000089,0.07278464738571122083,0.10936444613306316176,0.09697228746430873458,0.02345683276534340361,0.16426268766694296364,0.11799999999999999378,0.02999999999999999889,0.05399999999999999245,0.07399999999999999634,0.20000000000000001110,0.14647376116791008260,0.03710931503484694860,0.05986297242946179292,0.08331980519480519654,0.24758249286174816017,-0.78727436877073497801,-0.00712030319363571133,-0.41313568101040043512,0.12882869734996510447
X1002,X1002_12,122.44304615071558828276,69.17878025979339895457,34.00000000000000000000,0.01881239243367824332,0.01677916285718508357,73.52941176470588402481,102.00000000000000000000,0.91050544381587639187,4.00000000000000000000,0.85174399499006625547,27.00000000000000000000,0.83689792805265028619,19.00000000000000000000,0.81289611658111571302,15.00000000000000000000,0.72968189165616215153,12.00000000000000000000,2.18750000000000000000,0.62500000000000000000,0.31249999999999988898,0.62500000000000011102,1.25000000000000022204,2.81250000000000000000,0.93750000000000000000,3.43749999999999866773,0.46875000000000011102,0.31250000000000005551,0.46874999999999961142,0.31250000000000005551,0.31250000000000005551,0.31250000000000005551,0.62500000000000011102,16.00000000000000000000,0.00000000000000000000,0.62500000000000000000,1.24999999999999955591,1.25000000000000022204,1.87500000000000044409,1.71875000000000000000,0.78125000000000000000,4.84374999999999822364,1.40625000000000022204,1.25000000000000022204,0.00000000000000000000,0.00000000000000000000,0.00000000000000000000,0.00000000000000000000,0.00000000000000000000,10.00000000000000000000,0.93750000000000000000,0.62500000000000000000,0.31249999999999988898,1.25000000000000022204,1.87500000000000044409,0.31250000000000000000,0.15625000000000000000,0.15624999999999994449,0.31250000000000005551,1.40625000000000022204,4.99999999999999555911,2.65625000000000044409,0.00000000000000000000,0.00000000000000000000,0.00000000000000000000,6.00000000000000000000,1.25000000000000000000,0.93750000000000000000,0.62499999999999977796,0.62500000000000011102,1.56250000000000044409,0.00000000000000000000,0.00000000000000000000,0.00000000000000000000,0.00000000000000000000,0.00000000000000000000,1.09374999999999911182,6.87500000000000177636,0.78125000000000022204,0.46875000000000011102,0.78125000000000022204,19.00000000000000000000,1.25000000000000000000,0.93750000000000000000,0.62499999999999977796,1.25000000000000022204,0.93750000000000022204,0.00000000000000000000,0.00000000000000000000,0.00000000000000000000,0.46875000000000011102,3.90625000000000088818,4.99999999999999555911,0.15625000000000002776,0.15625000000000002776,0.15625000000000002776,0.15625000000000002776,15.00000000000000000000,-0.00328904224239877970,-0.02239264013412520585,-0.09800359640620251445,-0.19878314636608640509,-0.24907874677423916254,-0.20435442259806918530,-0.01434854341088557909,0.05073886560685645503,0.18462339351041345825,0.33558103406038891636,0.46695041265595449431,0.58537167260254374668,0.66141023541216559245,0.68706680244533813173,0.64282177576052179635,0.60064991766676667506,0.58447543768585030755,0.62130921708271047432,0.67530703861651431019,0.75702653880293302446,0.81774070530363096587,0.87656084478625528877,0.90867265330677993163,0.94448865380779556400,0.94915174017527159656,0.18127304877642436143,0.81600000000000005862,0.17399999999999998801,0.64200000000000001510,0.10200000000000000733,0.08610740639665651064,0.23400000000000001354,-0.03850812664874178615,0.43800000000000000044,0.22104577027251762211,0.00754117879864830976,0.26400000000000001243,0.37800000000000000266,4.21372386460876136027,0.21222390849109196154,0.78777609150890803846,0.12380815540404553621,0.28607113063910277750,0.53641500314359547019,0.32419109465250356417,0.46358499685640447430,0.08999999999999999667,0.11035727619915255970,0.19400000000000000577,0.23794000040519430739,0.28400000000000003020,0.34829727660434683933,2.15719696969696972388,0.06600000000000000311,0.08088535850347042255,0.11399999999999999023,0.14001086343793581190,0.17999999999999999334,0.22089622194140623446,1.73263888888888883955,0.04399999999999999745,0.05386442119994513944,0.06400000000000000133,0.07859178052181904628,0.10799999999999999878,0.13245620172176419960,1.46666666666666656305,1.01406554152227701415,5.83370270219315578686,15.60288741441985571612,5.47719797139602260216,6.84776824371543302306,21.08008538581587743010,0.14735927023072908915,0.85264072976927085534,0.74051599817874902421,0.25948400182125086477,0.24513661376379780599,0.75486338623620219401,1.02374724388927917929,0.34977976957749523645,0.01148739968603692402,-0.01386647702202742360,-0.00502099604701253255,-0.00434570455220989471,0.00335320918968910059,0.17525912958334563529,0.91543678786094817568,0.68399447538460789175,0.61885010518193239726,0.20374088937049261716,-1.20697239853078186478,-0.43644273028872360154,-0.37797430231614259633,0.29217600243915420322,5.26651380623213416499,3.90155155834863709430,3.52018938653376167736,1.17191552533631826449,0.05799999999999999600,0.08799999999999999489,0.08000000000000001554,0.02199999999999999872,0.13799999999999998379,0.06994373420410038289,0.10806369821750118343,0.09831018939049868122,0.02707790384070787176,0.16902049504059957208,0.11599999999999999201,0.02800000000000000058,0.05199999999999999761,0.07400000000000001021,0.21199999999999999400,0.14228017428699157865,0.03421647606949038134,0.06409371332100829988,0.09117161716171617858,0.26019211220231575066,-0.68473136836506987013,-0.00712041411191648155,-0.39255536592591572242,0.11239896994793441287
X1002,X1002_13,114.48373821370593361735,65.35764761941578626647,35.00000000000000000000,0.01263415778585339454,0.01551600489664847586,79.78723404255319451295,94.00000000000000000000,0.92961378006919892503,79.00000000000000000000,0.87231790673325981800,28.00000000000000000000,0.85964268579345759491,19.00000000000000000000,0.84188308829878732986,14.00000000000000000000,0.76750283129642071778,11.00000000000000000000,2.05882352941176449690,0.58823529411764707842,0.58823529411764685637,0.58823529411764718944,1.17647058823529437888,2.22222222222222232091,2.53968253968253954156,2.69841269841269770779,0.31746031746031749821,0.31746031746031749821,0.31746031746031716514,0.31746031746031749821,0.31746031746031749821,0.31746031746031749821,0.63492063492063499641,17.00000000000000000000,0.00000000000000000000,0.58823529411764707842,1.17647058823529371274,1.17647058823529437888,2.05882352941176494099,1.74603174603174604584,0.79365079365079360674,3.49206349206349075942,2.06349206349206415467,1.42857142857142882519,0.47619047619047577546,0.00000000000000000000,0.00000000000000000000,0.00000000000000000000,0.00000000000000000000,10.00000000000000000000,1.17647058823529415683,0.29411764705882353921,0.29411764705882342819,1.47058823529411797360,1.76470588235294156831,0.31746031746031744269,0.15873015873015872135,0.31746031746031733167,0.15873015873015874910,2.06349206349206415467,3.96825396825396481404,1.90476190476190532230,1.11111111111111138250,0.00000000000000000000,0.00000000000000000000,6.00000000000000000000,1.47058823529411775155,0.58823529411764707842,0.88235294117647022905,0.29411764705882359472,1.76470588235294156831,0.00000000000000000000,0.00000000000000000000,0.00000000000000000000,0.00000000000000000000,0.31746031746031749821,0.95238095238095155093,3.80952380952381064461,3.49206349206349297987,0.63492063492063499641,0.79365079365079382878,20.00000000000000000000,1.47058823529411775155,0.58823529411764707842,0.88235294117647022905,1.17647058823529437888,0.88235294117647078416,0.00000000000000000000,0.00000000000000000000,0.00000000000000000000,0.79365079365079382878,4.44444444444444553000,3.33333333333333037274,0.95238095238095266115,0.15873015873015874910,0.15873015873015874910,0.15873015873015874910,16.00000000000000000000,-0.00344118110218693141,-0.02544872023453383786,-0.11856530901930631416,-0.21573671239261763000,-0.26090281836712025942,-0.20047759916003618508,-0.01282697377143365500,0.05061595103272201884,0.18768016063509748714,0.36205763275003827184,0.52219793918786883147,0.66596010245947501183,0.75484575142972865081,0.79227043244511508036,0.73560425053335731782,0.65050910461494382275,0.57327167544794388476,0.56517305929354999527,0.58631471859834405347,0.66195470621678165202,0.73529336041507042943,0.81655317414399952725,0.86447900725975634906,0.92848424595157152961,0.94948888216128857209,0.23327085891541377016,0.74879999999999991012,0.16000000000000000333,0.58879999999999999005,0.09119999999999998941,0.07818879834123848571,0.22720000000000001306,-0.04027738078927922682,0.41600000000000003642,0.16662813840127294052,0.01401622227657953190,0.25600000000000000533,0.33280000000000004023,5.08021562986573993470,0.21376811594202896338,0.78623188405797095335,0.12182971014492753603,0.30353260869565218405,0.55570652173913048788,0.34193840579710144123,0.44429347826086951212,0.08799999999999999489,0.11757246376811594790,0.15679999999999999494,0.20932971014492754436,0.24479999999999998983,0.32690217391304349226,1.78181818181818196756,0.06560000000000000553,0.08768115942028983922,0.10400000000000000910,0.13885869565217390242,0.16959999999999997300,0.22653985507246376940,1.58888888888888901718,0.04159999999999999809,0.05561594202898549610,0.06079999999999999988,0.08115942028985506651,0.10240000000000000491,0.13677536231884054874,1.47333333333333338366,1.03168170896606459230,5.06400784061776398914,12.28381063875763956617,4.88122920394352810547,6.09568954958382835940,17.16503984270116944799,0.17002883250785483238,0.82997116749214527864,0.71526622050401889030,0.28473377949598116521,0.26219375438055048111,0.73780624561944951889,1.07734024492468893897,0.34460417792322939334,0.01049350348237084417,-0.01292036173750874505,-0.00330852336834221985,-0.00277152146810173954,0.00401828100554036099,0.16460311733473514950,0.83444663844369237893,0.51039234541470457351,0.47137084842555604380,0.12414883861783398977,-1.23204752783040993869,-0.32862289044687531536,-0.27591175885209739960,0.38338669611282183425,5.11675176281120691613,3.11933856851708757318,2.88559290015284419795,0.75758674266846715017,0.04480000000000000648,0.08959999999999998521,0.09759999999999999232,0.01440000000000000134,0.11680000000000001492,0.05978260869565217572,0.11974637681159421010,0.13070652173913041572,0.01911231884057970967,0.15579710144927533255,0.11519999999999999685,0.02560000000000000123,0.07199999999999999456,0.08640000000000000457,0.20319999999999999174,0.15398550724637682929,0.03423913043478261226,0.09646739130434782428,0.11557971014492754436,0.27137681159420290466,-1.01089957464425883593,-0.00577656284951559747,-0.62751287853143700168,0.15787718516356480380
X1002,X1002_14,118.46723354623951252051,65.79715651244661955843,36.00000000000000000000,0.01592875018828080608,0.01521675699574446226,76.92307692307693400835,97.50000000000000000000,0.92085689669173564909,3.00000000000000000000,0.86591980380960720254,28.00000000000000000000,0.85725915158698762220,19.00000000000000000000,0.82274518309557276297,15.00000000000000000000,0.74326636703363868630,11.00000000000000000000,2.18750000000000000000,0.62500000000000000000,0.31249999999999988898,0.62500000000000011102,1.25000000000000022204,2.65625000000000000000,2.18750000000000000000,2.49999999999999911182,0.46875000000000011102,0.31250000000000005551,0.31249999999999972244,0.31250000000000005551,0.31250000000000005551,0.31250000000000005551,0.62500000000000011102,16.00000000000000000000,0.00000000000000000000,0.62500000000000000000,1.24999999999999955591,1.25000000000000022204,1.87500000000000044409,1.71875000000000000000,0.78125000000000000000,3.90624999999999866773,2.18750000000000044409,1.40625000000000022204,0.00000000000000000000,0.00000000000000000000,0.00000000000000000000,0.00000000000000000000,0.00000000000000000000,10.00000000000000000000,0.93750000000000000000,0.62500000000000000000,0.31249999999999988898,1.25000000000000022204,1.87500000000000044409,0.31250000000000000000,0.15625000000000000000,0.15624999999999994449,0.15625000000000002776,1.40625000000000022204,4.84374999999999555911,2.34375000000000044409,0.62500000000000011102,0.00000000000000000000,0.00000000000000000000,6.00000000000000000000,1.56250000000000000000,0.62500000000000000000,0.62499999999999977796,0.31250000000000005551,1.87500000000000044409,0.00000000000000000000,0.00000000000000000000,0.00000000000000000000,0.00000000000000000000,0.00000000000000000000,1.24999999999999888978,6.25000000000000177636,1.25000000000000022204,0.46875000000000011102,0.78125000000000022204,19.00000000000000000000,1.56250000000000000000,0.62500000000000000000,0.62499999999999977796,1.25000000000000022204,0.93750000000000022204,0.00000000000000000000,0.00000000000000000000,0.00000000000000000000,0.46875000000000011102,4.21875000000000088818,4.21874999999999644729,0.62500000000000011102,0.15625000000000002776,0.15625000000000002776,0.15625000000000002776,15.00000000000000000000,-0.00445433129954550706,-0.02769574095639092473,-0.12727051663927863023,-0.23587348998855137139,-0.28123823672364700599,-0.22879784705680594747,-0.01654330161905599381,0.05059587326050718481,0.19135522933927040512,0.35929017424398107527,0.50902781516169215426,0.64331261421341379148,0.72204613511667470327,0.74796519421601348476,0.69241715504011058790,0.62717060496576426676,0.57888320308308238715,0.59608109821605581580,0.63208702255931337177,0.70740363882230083981,0.77111821971953053989,0.84096443303446244411,0.87694782319016117977,0.92912214245790103462,0.94061777645670829884,0.20874836777425412326,0.78079999999999993854,0.15840000000000001301,0.62240000000000006430,0.08799999999999999489,0.09068965124665134825,0.22080000000000002403,-0.04388566427776789680,0.42239999999999999769,0.20705167325533913036,0.01191758683095693258,0.26400000000000001243,0.35839999999999999636,4.73095128959989619233,0.20295350243226922826,0.79704649756773071623,0.11282007851166112045,0.28313797762564246741,0.54117836929367524323,0.33822486686140595946,0.45882163070632475677,0.08959999999999998521,0.11484028053186312590,0.16960000000000002851,0.21697490457248327922,0.25919999999999998597,0.33181518510434637736,1.89242424242424256420,0.06720000000000000973,0.08609137023070304040,0.10559999999999999942,0.13515930705576162385,0.17280000000000000915,0.22125067728646463650,1.57499999999999995559,0.04479999999999999954,0.05738411357944400715,0.05919999999999999568,0.07579499545651562087,0.10400000000000000910,0.13317910903595964189,1.33333333333333348136,1.16590668525766627539,6.06839958262765577501,15.17220237865085685769,5.67550312170838999748,7.23430626788532116223,20.84770550035924685517,0.16155848282882812050,0.83844151717117187950,0.72683205225369629243,0.27316794774630365206,0.25755290545980458194,0.74244709454019552908,1.08202888774700078933,0.34110119587468090696,0.01213587506128912738,-0.01475474814387633948,-0.01240404990437833296,-0.01056234724265550130,0.00384029278893819334,0.18442794839225915005,0.96218173678293938966,0.97205823721891226885,0.95505411752440694251,0.17153637527140769281,-1.21641728277230720678,-1.02315883436118015837,-0.87139259671702762322,0.31739948020351083091,5.25187697809060249909,5.30738360336994308142,5.21378373046706933280,0.93763046860476040312,0.04160000000000000503,0.08799999999999999489,0.02079999999999999905,0.00800000000000000017,0.20480000000000000981,0.05326205188873885110,0.11282007851166112045,0.02661500125808188150,0.01025637077378737348,0.26247152505479143247,0.11679999999999998717,0.02879999999999999921,-0.00800000000000000017,0.00000000000000000000,0.20480000000000000981,0.14969145054353036328,0.03687137203186925671,-0.01025637077378737348,0.00000000000000000000,0.26247152505479143247,0.36073466810238979940,-0.01266585804389110115,0.67813414830590068583,0.00049382983248968167
X1002,X1002_15,121.17235778961294556666,67.58110128584071674140,42.00000000000000000000,0.00637070877805864799,0.00551419692475118000,79.36507936507936733506,94.50000000000000000000,0.91912213075039217447,3.00000000000000000000,0.86501541745870924593,27.00000000000000000000,0.86093541419561192551,18.00000000000000000000,0.85889006250848010104,14.00000000000000000000,0.75525045604374896335,10.00000000000000000000,2.05882352941176449690,0.58823529411764707842,0.58823529411764685637,0.58823529411764718944,1.17647058823529437888,2.53968253968253954156,2.06349206349206371058,2.69841269841269770779,0.47619047619047633058,0.31746031746031749821,0.31746031746031716514,0.31746031746031749821,0.31746031746031749821,0.31746031746031749821,0.63492063492063499641,17.00000000000000000000,0.00000000000000000000,0.58823529411764707842,1.47058823529411730746,0.88235294117647078416,2.05882352941176494099,1.74603174603174604584,0.95238095238095232808,4.44444444444444286546,1.74603174603174648993,1.11111111111111138250,0.00000000000000000000,0.00000000000000000000,0.00000000000000000000,0.00000000000000000000,0.00000000000000000000,10.00000000000000000000,1.17647058823529415683,0.29411764705882353921,0.29411764705882342819,1.47058823529411797360,1.76470588235294156831,0.15873015873015872135,0.31746031746031744269,0.15873015873015866584,0.15873015873015874910,1.90476190476190532230,4.28571428571428203469,2.53968253968253998565,0.47619047619047633058,0.00000000000000000000,0.00000000000000000000,6.00000000000000000000,1.47058823529411775155,0.58823529411764707842,0.58823529411764685637,0.58823529411764718944,1.76470588235294156831,0.00000000000000000000,0.00000000000000000000,0.00000000000000000000,0.00000000000000000000,0.00000000000000000000,1.11111111111111027228,4.92063492063492180506,2.53968253968253998565,0.63492063492063499641,0.79365079365079382878,20.00000000000000000000,1.17647058823529415683,0.88235294117647056211,0.58823529411764685637,1.17647058823529437888,1.17647058823529437888,0.00000000000000000000,0.00000000000000000000,0.00000000000000000000,0.47619047619047633058,3.80952380952381064461,4.60317460317459836716,0.79365079365079382878,0.15873015873015874910,0.00000000000000000000,0.15873015873015874910,15.00000000000000000000,-0.00380649577215685930,-0.02677302922915564959,-0.12507673908197836088,-0.22936041390399797280,-0.27356430115350072185,-0.21520196619265458127,-0.01504428528123249661,0.04548701234615433464,0.17536171517991000490,0.33450505752315756736,0.47692405627993006423,0.61041605139282162362,0.69859373111650491239,0.74155510277881253600,0.70177319529910575646,0.64335541084186431693,0.58968456799479807007,0.59648409309949179669,0.62556854546482798529,0.69856485230435727551,0.76214444777632450734,0.83573705710471946073,0.87634111841580941693,0.93175307370852211708,0.94843134957390573536,0.22423227060079392592,0.76959999999999995079,0.16000000000000000333,0.60960000000000003073,0.08799999999999999489,0.07278826516690467541,0.22080000000000002403,-0.03435986521036971109,0.42080000000000000737,0.16245099117744166151,0.00875911834142548140,0.26080000000000003180,0.34879999999999994342,4.83042797134823853611,0.20801617210535616742,0.79198382789464383258,0.11430223661011136571,0.28721391274759400236,0.54728559575570956408,0.33926942365035339666,0.45271440424429043592,0.08959999999999998521,0.11650003880791356958,0.17279999999999998139,0.22443001995895736633,0.26240000000000002212,0.34093005876687093592,1.92878787878787893995,0.06720000000000000973,0.08728226232970066889,0.10720000000000000362,0.13934555982705890131,0.17439999999999997171,0.22662782215675955633,1.59722222222222209886,0.04639999999999999680,0.06027815479902766393,0.05920000000000000956,0.07686960283022901963,0.10559999999999999942,0.13714775762925665581,1.27999999999999980460,0.93674969367039828683,5.01004887057635350800,12.19830276387610901168,4.37028501896816834460,5.94679856424675179483,16.56858778284427557992,0.15737177620068870665,0.84262822379931123784,0.73625011521543093362,0.26374988478456906638,0.26419784006294461109,0.73580215993705533339,1.04260949161652716199,0.35270799385294476780,0.00986205607795595865,-0.01173026509422367934,-0.00512724177336356703,-0.00429356414350220983,0.00324427361330921482,0.14449342822516969553,0.76770983380067014945,0.59229765000544665199,0.55086513940202519457,0.13867060599787978115,-1.18929293544903380564,-0.52129992999683349986,-0.43657231860968426229,0.32863034633481624791,5.40526581017650453731,4.10772712464514277997,3.81098220713294333351,0.97901642580927483728,0.04160000000000000503,0.08799999999999999489,0.07199999999999999456,0.01600000000000000033,0.14719999999999999751,0.05402408181108371565,0.11453925449418807248,0.09286054315703273776,0.02059608770946531886,0.19256676540832137756,0.11839999999999999136,0.03039999999999999994,0.04159999999999999115,0.05759999999999999842,0.20480000000000000981,0.15399209029427246564,0.03945283580008437929,0.05340770735694835153,0.07400379506641366345,0.26657056047473509652,-0.56005103317733218038,-0.00674985877687201731,-0.23142068684251587696,0.09905545875517678123
X1002,X1002_16,117.28137630344974695618,66.64042206144577562554,38.00000000000000000000,0.01105046938712178801,0.00972383206752007977,81.52173913043478137297,92.00000000000000000000,0.93442768595402880827,3.00000000000000000000,0.88070786557977420728,29.00000000000000000000,0.85854911135034439607,19.00000000000000000000,0.85223542418238762419,14.00000000000000000000,0.75011688097535667019,10.00000000000000000000,2.05882352941176449690,0.58823529411764707842,0.58823529411764685637,0.58823529411764718944,1.17647058823529437888,2.22222222222222232091,2.38095238095238093123,2.85714285714285631812,0.31746031746031749821,0.31746031746031749821,0.31746031746031716514,0.31746031746031749821,0.31746031746031749821,0.31746031746031749821,0.63492063492063499641,17.00000000000000000000,0.00000000000000000000,0.58823529411764707842,1.17647058823529371274,1.17647058823529437888,2.05882352941176494099,1.74603174603174604584,0.79365079365079360674,3.49206349206349075942,2.06349206349206415467,1.74603174603174648993,0.15873015873015858257,0.00000000000000000000,0.00000000000000000000,0.00000000000000000000,0.00000000000000000000,10.00000000000000000000,0.88235294117647056211,0.58823529411764707842,0.29411764705882342819,1.47058823529411797360,1.76470588235294156831,0.31746031746031744269,0.31746031746031744269,0.15873015873015866584,0.15873015873015874910,2.06349206349206415467,4.12698412698412298028,1.58730158730158765756,1.26984126984126999282,0.00000000000000000000,0.00000000000000000000,6.00000000000000000000,1.47058823529411775155,0.88235294117647056211,0.58823529411764685637,0.29411764705882359472,1.76470588235294156831,0.00000000000000000000,0.00000000000000000000,0.00000000000000000000,0.00000000000000000000,0.47619047619047633058,0.79365079365079294060,3.80952380952381064461,3.49206349206349297987,0.63492063492063499641,0.79365079365079382878,3.00000000000000000000,1.47058823529411775155,0.58823529411764707842,0.88235294117647022905,1.17647058823529437888,0.88235294117647078416,0.00000000000000000000,0.00000000000000000000,0.00000000000000000000,0.31746031746031749821,4.28571428571428647558,3.96825396825396481404,0.95238095238095266115,0.15873015873015874910,0.15873015873015874910,0.15873015873015874910,16.00000000000000000000,-0.00357358531329030147,-0.02515890075248228969,-0.11919350729293302915,-0.21786652829221334060,-0.26226266395344077775,-0.20491180194502733869,-0.01691512970244395467,0.03770453488638006445,0.16999466647096950211,0.34226970041908932885,0.50231405338408274819,0.64913304022109685754,0.74265656956656544985,0.78356144111145076270,0.73250716111640346018,0.65556435991774064664,0.58240014467590239811,0.57224002283864305873,0.58900750814216340512,0.65796878734905750452,0.72363734562888193391,0.80177512789624394429,0.85011693793006093411,0.91500111308973186564,0.94011966492639442716,0.24272812284752423584,0.75519999999999998241,0.16160000000000002141,0.59360000000000001652,0.08959999999999998521,0.05216594569240464579,0.22720000000000001306,-0.02677864814030692792,0.41760000000000002673,0.53250409677651755480,0.00847644660368342996,0.25600000000000000533,0.33760000000000001119,1.85192360616964601938,0.21415995400232185064,0.78584004599767820487,0.11868797470127698257,0.30108579127335366454,0.55328213168053541615,0.33912217767821362102,0.44671786831946463936,0.16160000000000002141,0.21415995400232185064,0.58560000000000000941,0.77523204829756209300,0.74719999999999997531,0.98939200229988399915,3.62285714285714277594,0.10720000000000000362,0.14210177229931136855,0.38879999999999997895,0.51315746774010828624,0.49599999999999999645,0.65525924003941959928,3.61758241758241760877,0.06239999999999999714,0.08280212593082562911,0.09119999999999998941,0.12074983037138009578,0.15360000000000001430,0.20355195630220573877,1.46785714285714297134,0.71008070289101143935,3.61703878292822000873,8.32132198495304109542,3.32400251524172229978,4.32711948581923167012,11.64532450019476605974,0.16301764487943376514,0.83698235512056629037,0.71401072617833738487,0.28598927382166272615,0.27116190585474198027,0.72883809414525801973,1.07884080803407522708,0.34562668319573525144,0.00704432832828312278,-0.00842148588958624433,-0.00513491108224728432,-0.00430390025182674201,0.00264575248551205408,0.52866005871751187151,0.97630084364379254858,0.90424105336424387414,0.89206426462591736914,0.50580696355546750365,-1.19565078018729975540,-0.72513452387167343094,-0.60762977385198335689,0.37534735257983570245,1.84727516308103512088,1.71518419187924786584,1.69219748602096586865,0.95670230455700511207,0.04320000000000000229,0.08799999999999999489,0.05120000000000000245,0.00800000000000000017,0.16960000000000002851,0.05710184417068354945,0.11668797470127700855,0.06687553949210084392,0.01060799770011609106,0.22575279171554524238,0.11839999999999999136,0.03039999999999999994,0.02079999999999999558,0.02879999999999999921,0.19839999999999999303,0.15705810983163823180,0.04037013513036127182,0.02650540436173958250,0.03711340206185567009,0.26286619377740094716,-0.23823383504347880879,-0.00597699325300962182,0.13711351753635681039,0.05327698419865291996
X1002,X1002_17,122.33347245653351365036,68.71035201752394527830,37.00000000000000000000,0.01681485763948397175,0.01207583147100516757,76.14213197969543500676,98.50000000000000000000,0.92421852617601218949,3.00000000000000000000,0.86049509938021828681,28.00000000000000000000,0.85118542142607722667,19.00000000000000000000,0.84554040040732769690,14.00000000000000000000,0.71697328368407453603,11.00000000000000000000,2.18750000000000000000,0.62500000000000000000,0.31249999999999988898,0.62500000000000011102,1.25000000000000022204,2.81250000000000000000,1.40625000000000000000,3.12499999999999911182,0.31250000000000005551,0.46875000000000011102,0.31249999999999972244,0.31250000000000005551,0.31250000000000005551,0.31250000000000005551,0.62500000000000011102,16.00000000000000000000,0.00000000000000000000,0.62500000000000000000,1.24999999999999955591,1.25000000000000022204,1.87500000000000044409,1.56250000000000000000,0.93750000000000000000,4.68749999999999822364,1.56250000000000044409,1.25000000000000022204,0.00000000000000000000,0.00000000000000000000,0.00000000000000000000,0.00000000000000000000,0.00000000000000000000,10.00000000000000000000,0.93750000000000000000,0.62500000000000000000,0.31249999999999988898,1.25000000000000022204,1.87500000000000044409,0.31250000000000000000,0.15625000000000000000,0.15624999999999994449,0.31250000000000005551,1.40625000000000022204,4.99999999999999555911,2.50000000000000044409,0.15625000000000002776,0.00000000000000000000,0.00000000000000000000,6.00000000000000000000,1.56250000000000000000,0.62500000000000000000,0.62499999999999977796,0.31250000000000005551,1.87500000000000044409,0.00000000000000000000,0.00000000000000000000,0.00000000000000000000,0.00000000000000000000,0.00000000000000000000,1.24999999999999888978,5.78125000000000088818,1.71875000000000044409,0.46875000000000011102,0.78125000000000022204,19.00000000000000000000,1.25000000000000000000,0.93750000000000000000,0.62499999999999977796,1.25000000000000022204,0.93750000000000022204,0.00000000000000000000,0.00000000000000000000,0.00000000000000000000,0.46875000000000011102,3.59375000000000088818,4.99999999999999555911,0.46875000000000011102,0.15625000000000002776,0.15625000000000002776,0.15625000000000002776,15.00000000000000000000,-0.00368455725160352640,-0.02532727324753021245,-0.12401011101658214464,-0.23257689499938308253,-0.27926233031009395358,-0.22412079114005742375,-0.01445772135775415766,0.05193775746702990886,0.18720529053532289354,0.34601090795010130963,0.48165138687325337319,0.60547824232411584511,0.68163102572184663952,0.70726928140327116612,0.65706642462251418912,0.60659833927888984206,0.57263093227000916308,0.59848329042358838770,0.64165642501220376825,0.71862602297343158853,0.77814687512868663255,0.84464679707777867712,0.87676787982105075514,0.92221200457604124434,0.93087128973849897484,0.20315547394289107386,0.86240000000000005542,0.23199999999999998401,0.63040000000000007141,0.15999999999999997558,0.08327005405919717107,0.29439999999999999503,-0.03857914121595449469,0.49440000000000000613,0.26971716950932878021,0.00863352049041058930,0.26240000000000002212,0.36799999999999999378,3.57456959316625244583,0.25358193992872635203,0.74641806007127353695,0.16860675760828150449,0.32649242857543758767,0.56371875951616090550,0.31013681958743449796,0.43628124048383920552,0.09759999999999999232,0.11536209876402955810,0.35360000000000002540,0.42863222059234251660,0.45120000000000004547,0.54399431935637210245,3.62051282051282052876,0.06880000000000000004,0.08155613537977957073,0.11839999999999999136,0.14018645494654477512,0.18719999999999997753,0.22174259032632431810,1.72500000000000008882,0.04640000000000000374,0.05466992352716125436,0.06560000000000000553,0.07751369341575295446,0.11200000000000001621,0.13218361694291422270,1.42666666666666652752,1.83162188694581651305,5.72984300737060170405,14.72533147753573778971,5.68309715972055151667,7.56146489431641821710,20.40842863725629285909,0.21444368508937533546,0.78555631491062460903,0.72348700553647637967,0.27651299446352350930,0.26758408429264912698,0.73241591570735087302,1.11972438077200076023,0.32766474215012048044,0.00968316098878352696,-0.01327221209191775664,-0.00309258427144996082,-0.00259571476718935008,0.00306533869745395085,0.19385341716814502577,0.94831800970757207381,0.65538275287323843887,0.58993216281112415000,0.28167659055875077234,-1.64194473579364697002,-0.64025975086922870538,-0.53670150911746739020,0.34055565325963405021,20.62461659042492456706,19.68640635488562651290,19.14201372829898417649,8.39421831222010794704,0.03359999999999999792,0.16959999999999997300,0.09439999999999999780,0.02080000000000000251,0.10240000000000000491,0.04199438803795479264,0.17780100221259803606,0.11545959775659168922,0.02524483194487826473,0.12067678621394475891,0.19839999999999999303,0.02879999999999999921,0.06560000000000000553,0.08640000000000000457,0.18879999999999999560,0.21158755189077158021,0.03378654967817350946,0.08167304807841818670,0.10691788002329645491,0.22759466623724117218,-0.80553912906658475812,-0.00577149622986656251,-0.46498347580695076342,0.14330780036499118912
X1002,X1002_18,113.88046552229056374017,64.81180991580166050881,40.00000000000000000000,0.01801703699439516707,0.01008223840815119197,81.08108108108108069700,92.50000000000000000000,0.92240755381475292296,3.00000000000000000000,0.87656501821418475462,29.00000000000000000000,0.86469781767375164527,19.00000000000000000000,0.86481846101132298088,15.00000000000000000000,0.76275925932367072413,11.00000000000000000000,2.05882352941176449690,0.58823529411764707842,0.58823529411764685637,0.58823529411764718944,1.17647058823529437888,2.22222222222222232091,2.53968253968253954156,2.69841269841269770779,0.47619047619047633058,0.31746031746031749821,0.15873015873015858257,0.31746031746031749821,0.31746031746031749821,0.31746031746031749821,0.63492063492063499641,17.00000000000000000000,0.00000000000000000000,0.58823529411764707842,1.17647058823529371274,1.17647058823529437888,2.05882352941176494099,1.58730158730158721347,0.79365079365079360674,3.01587301587301492845,2.69841269841269904006,1.26984126984126999282,0.63492063492063433028,0.00000000000000000000,0.00000000000000000000,0.00000000000000000000,0.00000000000000000000,10.00000000000000000000,0.88235294117647056211,0.58823529411764707842,0.29411764705882342819,1.17647058823529437888,2.05882352941176494099,0.31746031746031744269,0.31746031746031744269,0.15873015873015866584,0.15873015873015874910,1.90476190476190532230,4.12698412698412298028,1.42857142857142882519,1.58730158730158765756,0.00000000000000000000,0.00000000000000000000,6.00000000000000000000,1.17647058823529415683,1.17647058823529415683,0.58823529411764685637,0.29411764705882359472,1.76470588235294156831,0.00000000000000000000,0.00000000000000000000,0.00000000000000000000,0.00000000000000000000,0.47619047619047633058,0.79365079365079294060,3.80952380952381064461,3.49206349206349297987,0.63492063492063499641,0.79365079365079382878,21.00000000000000000000,1.47058823529411775155,0.58823529411764707842,0.88235294117647022905,1.17647058823529437888,0.88235294117647078416,0.00000000000000000000,0.00000000000000000000,0.00000000000000000000,0.31746031746031749821,4.44444444444444553000,3.96825396825396481404,0.79365079365079382878,0.15873015873015874910,0.15873015873015874910,0.15873015873015874910,16.00000000000000000000,-0.00338488433227975222,-0.02289555855901515696,-0.11441275560534620859,-0.21328121304994338003,-0.26014274031582784730,-0.20470583046662724214,-0.01546656272331921843,0.04698077799580766684,0.18890313733430727505,0.36875769012126546897,0.53487152469485688133,0.68473613585611303733,0.77506914178031249829,0.80808199110529321807,0.74807552222641071626,0.66189249989941201235,0.58155418631306399213,0.57022850286121784524,0.58983767582340462798,0.66074237564914539700,0.72800794279565506084,0.80829024339061883442,0.85646397623925485387,0.91941784965817063835,0.94382796920662848095,0.24960304390045862100,0.76000000000000000888,0.16000000000000000333,0.59999999999999997780,0.09119999999999998941,0.05699193327720027125,0.22720000000000001306,-0.03006595710793202869,0.41920000000000001705,0.47918192071351828343,0.01023672602774275929,0.25919999999999998597,0.34080000000000004734,2.04133993601935648243,0.21061096593507211416,0.78938903406492788584,0.12006357115645985290,0.29926785575257131011,0.55193247833688263704,0.34132151240181063390,0.44806752166311730745,0.16000000000000000333,0.21061096593507211416,0.59199999999999997069,0.77884760555927434744,0.75200000000000000178,0.98945857149434635058,3.69974937343358423192,0.09119999999999998941,0.12010982462547001304,0.16480000000000000204,0.21666862182607010689,0.25600000000000000533,0.33677844645154009218,1.81060606060606055223,0.05600000000000000810,0.07378999953957530999,0.08320000000000001006,0.10960380030110734861,0.13920000000000001816,0.18339379984068265861,1.48571428571428576504,0.78427793620338193126,3.71061920326568417394,8.91692292904896000039,3.58664454055143977484,4.49489713946906643827,12.50356746960039799887,0.17443540227039369683,0.82556459772960621990,0.71231659030271754496,0.28768340969728239953,0.26475989425173052094,0.73524010574826947906,1.11747634934186956812,0.33554470048138823612,0.00769957072388799402,-0.00940546217347832877,-0.00808652403720919698,-0.00697441086618437716,0.00288933155372120840,0.48195770029627349462,0.96876562217415496114,0.97411553596877775707,0.96372574024353663269,0.44505078714597906542,-1.22197385884563591851,-1.05066459392303857001,-0.90614884204509338339,0.37586024636533316157,2.01019297471848101821,2.02127434026409513734,1.99966678538831210687,0.92312668407455977793,0.04480000000000000648,0.08799999999999999489,0.01920000000000000179,0.00800000000000000017,0.20000000000000001110,0.05887685579264123614,0.11595571356218978276,0.02523696807458747360,0.01054142850565361819,0.26357111682263134611,0.11519999999999999685,0.02720000000000000195,-0.00800000000000000017,0.00000000000000000000,0.20000000000000001110,0.15173411014243087802,0.03577839658024108832,-0.01054142850565361819,0.00000000000000000000,0.26357111682263134611,0.35897933075716276230,-0.00815681770513729081,0.73483957712249581284,0.00040866845301301675
X1002,X1002_19,120.86181056175067283220,67.04372089692847680453,37.00000000000000000000,0.01518863101447746194,0.01386849598652445913,77.31958762886598890418,97.00000000000000000000,0.93197991454341155837,3.00000000000000000000,0.86517740918647167980,28.00000000000000000000,0.84947306459390148348,19.00000000000000000000,0.84760426633751129177,14.00000000000000000000,0.73466298187972933764,11.00000000000000000000,2.18750000000000000000,0.62500000000000000000,0.31249999999999988898,0.62500000000000011102,1.25000000000000022204,2.50000000000000000000,1.56250000000000000000,3.28124999999999911182,0.46875000000000011102,0.31250000000000005551,0.31249999999999972244,0.31250000000000005551,0.15625000000000002776,0.31250000000000005551,0.78125000000000022204,16.00000000000000000000,0.00000000000000000000,0.62500000000000000000,1.24999999999999955591,0.93750000000000022204,2.18750000000000044409,1.71875000000000000000,0.78125000000000000000,3.90624999999999866773,2.18750000000000044409,1.40625000000000022204,0.00000000000000000000,0.00000000000000000000,0.00000000000000000000,0.00000000000000000000,0.00000000000000000000,10.00000000000000000000,0.93750000000000000000,0.31250000000000000000,0.62499999999999977796,1.25000000000000022204,1.87500000000000044409,0.31250000000000000000,0.15625000000000000000,0.31249999999999988898,0.15625000000000002776,1.71875000000000044409,4.68749999999999555911,2.18750000000000044409,0.46875000000000011102,0.00000000000000000000,0.00000000000000000000,6.00000000000000000000,1.56250000000000000000,0.62500000000000000000,0.62499999999999977796,0.31250000000000005551,1.87500000000000044409,0.00000000000000000000,0.00000000000000000000,0.00000000000000000000,0.00000000000000000000,0.00000000000000000000,1.24999999999999888978,5.00000000000000088818,2.50000000000000044409,0.46875000000000011102,0.78125000000000022204,20.00000000000000000000,1.56250000000000000000,0.62500000000000000000,0.62499999999999977796,1.25000000000000022204,0.93750000000000022204,0.00000000000000000000,0.00000000000000000000,0.00000000000000000000,0.46875000000000011102,4.21875000000000088818,3.90624999999999644729,0.93750000000000022204,0.15625000000000002776,0.15625000000000002776,0.15625000000000002776,15.00000000000000000000,-0.00270167502934063122,-0.02586138972752546200,-0.12679609092060378783,-0.23539482809687162224,-0.28032282349009729483,-0.22347742222663891098,-0.01497821717577515685,0.04864791969934070121,0.18360902070528833940,0.34880733064107238839,0.49543476024630239696,0.62609184892861002858,0.70361564124072484283,0.72803465805854983284,0.66974932611154458506,0.60467257785011274684,0.55963514564042804444,0.57778536076345221595,0.61452713577765238906,0.69072446209507543102,0.75257607894322109399,0.81933346274553142674,0.85522131383650512593,0.90477944517737363128,0.91399880539967703896,0.22856716517867672889,0.78400000000000003020,0.16160000000000002141,0.62240000000000006430,0.08799999999999999489,0.08456312072745204855,0.22720000000000001306,-0.04005347203035876380,0.42400000000000004352,0.23503354483126842611,0.01121811555320453846,0.26240000000000002212,0.35999999999999998668,4.07261756939830910085,0.20616909629107241231,0.79383090370892761545,0.11228189184897870156,0.28987033368285286539,0.54093143850467517719,0.33476234221360279264,0.45906856149532482281,0.09600000000000000200,0.12242620524939092086,0.22719999999999998530,0.28892396971655931459,0.32320000000000004281,0.41135017496595016606,2.33030303030303054257,0.07040000000000000424,0.08978366908855835160,0.11200000000000001621,0.14275943702617682751,0.18239999999999997882,0.23254310611473516524,1.59166666666666678509,0.04639999999999999680,0.05916133494792778780,0.06239999999999999714,0.07959770203824506618,0.10880000000000000782,0.13875903698617284010,1.35333333333333305504,1.01907477476853736142,5.93172071433535208484,14.35593884596056213354,5.91600693106435926438,6.95079548910388922422,20.27194577702492495064,0.14621782468017927026,0.85378217531982092403,0.70812491111290287726,0.29187508888709701171,0.25511566075094999073,0.74488433924904995376,1.06106117166432656340,0.34496335803885874727,0.01136944621757076876,-0.01344356046541974638,-0.00864877632783045414,-0.00729639110906150651,0.00371774088657699777,0.19031419687995465573,0.92203481427547928639,0.84507647221602366638,0.81259250529976845279,0.20058742099731871611,-1.18055835152015076162,-0.73431481721714131350,-0.61998764989072485676,0.32662946339860932099,4.94362938622570968761,4.61786675453777650802,4.45892233268035909077,1.05205574977072946474,0.04160000000000000503,0.08799999999999999489,0.04800000000000000100,0.01280000000000000061,0.17919999999999997042,0.05305742558791961411,0.11228189184897870156,0.06092536444366085380,0.01626805077414958042,0.22902992618849515871,0.11999999999999999556,0.03200000000000000067,0.01600000000000000033,0.02879999999999999921,0.20800000000000001821,0.15311167070315279126,0.04082977885417408276,0.02009558558948678145,0.03636363636363636187,0.26539356255213153446,-0.15288534781089402337,-0.00983931149916338933,0.17374411558771524211,0.04766034289722150680
X1002,X1002_20,121.90533366453909991378,67.12056675550417139675,33.00000000000000000000,0.03100197076597961329,0.01920364186412698224,80.64516129032257651943,93.00000000000000000000,0.93743853114564912321,3.00000000000000000000,0.88280402758810527786,29.00000000000000000000,0.86543082400497672868,19.00000000000000000000,0.85102660634971949438,14.00000000000000000000,0.75437415332581658767,10.00000000000000000000,2.05882352941176449690,0.58823529411764707842,0.58823529411764685637,0.58823529411764718944,1.17647058823529437888,2.22222222222222232091,2.53968253968253954156,2.69841269841269770779,0.31746031746031749821,0.31746031746031749821,0.31746031746031716514,0.31746031746031749821,0.15873015873015874910,0.31746031746031749821,0.79365079365079382878,17.00000000000000000000,0.00000000000000000000,0.58823529411764707842,1.17647058823529371274,1.17647058823529437888,2.05882352941176494099,1.58730158730158721347,0.95238095238095232808,2.38095238095238004306,3.17460317460317531513,1.26984126984126999282,0.63492063492063433028,0.00000000000000000000,0.00000000000000000000,0.00000000000000000000,0.00000000000000000000,10.00000000000000000000,1.17647058823529415683,0.29411764705882353921,0.29411764705882342819,1.47058823529411797360,1.76470588235294156831,0.31746031746031744269,0.31746031746031744269,0.15873015873015866584,0.31746031746031749821,2.06349206349206415467,3.96825396825396481404,1.74603174603174648993,1.11111111111111138250,0.00000000000000000000,0.00000000000000000000,6.00000000000000000000,1.47058823529411775155,0.88235294117647056211,0.58823529411764685637,0.29411764705882359472,1.76470588235294156831,0.00000000000000000000,0.00000000000000000000,0.00000000000000000000,0.00000000000000000000,0.47619047619047633058,0.79365079365079294060,3.65079365079365159019,3.49206349206349297987,0.79365079365079382878,0.79365079365079382878,3.00000000000000000000,1.47058823529411775155,0.88235294117647056211,0.58823529411764685637,1.17647058823529437888,0.88235294117647078416,0.00000000000000000000,0.00000000000000000000,0.00000000000000000000,0.15873015873015874910,3.65079365079365159019,4.60317460317459836716,0.95238095238095266115,0.31746031746031749821,0.15873015873015874910,0.15873015873015874910,16.00000000000000000000,-0.00352360713147209298,-0.02763229902638088958,-0.12386259292613426009,-0.22026488613451195020,-0.26250454460777522536,-0.19650954508785839492,-0.01293366533899301639,0.04538618783796916079,0.18117911466110683816,0.35974762333206050657,0.52494063725627504446,0.67647477719462645318,0.77282071505497662578,0.81139083357133290342,0.75279020324192558178,0.66601773398524577452,0.58145724571126677915,0.56182780504860796444,0.57553290128422629479,0.64519872795250243769,0.71108696786968683679,0.79138722744182499191,0.84347405147197829223,0.90753250697115783741,0.93311890927317153732,0.25216751135707837772,0.79839999999999999858,0.16320000000000001172,0.63519999999999998685,0.08959999999999999909,0.08635040847470377978,0.23359999999999997433,-0.04602535543611310093,0.42239999999999999769,0.18529563751533154048,0.01645403339669331694,0.25919999999999998597,0.37600000000000000089,5.29572382204084401991,0.20571684480725185851,0.79428315519274816925,0.11265038421716462580,0.29465959405713287866,0.53246565660800826425,0.32674881180075648901,0.46753434339199168024,0.09439999999999999780,0.11909228221540954507,0.16000000000000000333,0.19954023771442391810,0.25440000000000001501,0.31863251992983343541,1.69393939393939407800,0.06880000000000000004,0.08698750240432338854,0.10399999999999998135,0.13036832132399581163,0.17280000000000000915,0.21735582372831921405,1.52222222222222214327,0.04479999999999999954,0.05665263409766201075,0.06239999999999999714,0.07840323578761650147,0.10720000000000000362,0.13505586988527851222,1.41333333333333333037,1.13132187012326168585,6.16717617077882707122,14.09210476768014963511,6.14946475106412027145,7.29849804090208920115,20.24156951874427079474,0.15462830766627905232,0.84537169233372089217,0.69536842593291336989,0.30463157406708668562,0.26589407920447555300,0.73410592079552450251,1.10915808102460111684,0.33569218693945246379,0.01151905762765484745,-0.01352066318974929314,-0.00605375914956878241,-0.00523253156347259791,0.00472473413732555324,0.18755775344804803684,0.93411717172927488662,0.72406991872168369184,0.67354598083582850609,0.13201813374684628899,-1.17323188109610243579,-0.51569740465194635615,-0.44552150355138075977,0.40918433240585783128,4.99230898046453575034,3.90684544000051925394,3.64370375097288023980,0.69947115365493928163,0.04480000000000000648,0.08799999999999999489,0.07360000000000001263,0.01600000000000000380,0.14399999999999998912,0.05628969428518092177,0.11122785045775837598,0.08576405953135948779,0.01915603293369998877,0.18924666001779966162,0.11839999999999999136,0.03039999999999999994,0.04319999999999999535,0.05919999999999999568,0.20319999999999999174,0.14942715052207092286,0.03819930006431254688,0.04756475946704695479,0.06672079240074693662,0.25596745241854657049,-0.62119730529863281809,-0.00814398094404293095,-0.21201297289277518110,0.10273092336047535966
X1002,X1002_21,122.94509916334381216529,67.75506256565130058789,35.00000000000000000000,0.01850869711788232647,0.01703395655434397984,73.52941176470588402481,102.00000000000000000000,0.91748668576405356667,4.00000000000000000000,0.85888841529554316168,27.00000000000000000000,0.83277401094200553811,19.00000000000000000000,0.81010938735187920656,15.00000000000000000000,0.74515478130813339597,11.00000000000000000000,2.18750000000000000000,0.62500000000000000000,0.31249999999999988898,0.62500000000000011102,1.25000000000000022204,2.81250000000000000000,2.18750000000000000000,2.49999999999999911182,0.46875000000000011102,0.31250000000000005551,0.31249999999999972244,0.15625000000000002776,0.31250000000000005551,0.31250000000000005551,0.62500000000000011102,16.00000000000000000000,0.00000000000000000000,0.62500000000000000000,1.24999999999999955591,1.25000000000000022204,1.87500000000000044409,1.56250000000000000000,0.93750000000000000000,2.81249999999999911182,3.28125000000000088818,1.40625000000000022204,0.00000000000000000000,0.00000000000000000000,0.00000000000000000000,0.00000000000000000000,0.00000000000000000000,9.00000000000000000000,0.93750000000000000000,0.62500000000000000000,0.31249999999999988898,1.25000000000000022204,1.87500000000000044409,0.31250000000000000000,0.15625000000000000000,0.15624999999999994449,0.15625000000000002776,1.71875000000000044409,4.99999999999999555911,2.03125000000000044409,0.46875000000000011102,0.00000000000000000000,0.00000000000000000000,6.00000000000000000000,1.25000000000000000000,0.62500000000000000000,0.62499999999999977796,0.62500000000000011102,1.87500000000000044409,0.00000000000000000000,0.00000000000000000000,0.00000000000000000000,0.00000000000000000000,0.00000000000000000000,0.93749999999999922284,5.46875000000000088818,2.34375000000000044409,0.46875000000000011102,0.78125000000000022204,3.00000000000000000000,1.25000000000000000000,0.93750000000000000000,0.62499999999999977796,1.25000000000000022204,0.93750000000000022204,0.00000000000000000000,0.00000000000000000000,0.00000000000000000000,0.00000000000000000000,4.21875000000000088818,5.15624999999999555911,0.31250000000000005551,0.15625000000000002776,0.00000000000000000000,0.15625000000000002776,15.00000000000000000000,-0.00455881161438559390,-0.02718872689696778810,-0.13010237645465799750,-0.24596341929389520242,-0.29285144778965599421,-0.23938892513018306119,-0.01347187124776292114,0.06459254421756063791,0.21690114316409805917,0.39210506695940400279,0.53833110360153424434,0.66681584581340946905,0.73616819537875111124,0.73993831007452337545,0.66828897107911000575,0.61023491741915492081,0.57875849906821241753,0.61446346615958924442,0.66844300937913470051,0.74784881620592824625,0.80600252539016903341,0.87354330518017730967,0.90149814686443230372,0.94331653883449140263,0.95328743880622879292,0.18971242511541308584,0.80999999999999994227,0.15800000000000000155,0.65200000000000002398,0.08599999999999999312,0.08817964367671256298,0.22600000000000000644,-0.04309031288970741058,0.42199999999999998623,0.19093314435146574448,0.01136467171026353529,0.26400000000000001243,0.38800000000000001155,4.95492826238408490269,0.19508521092814604114,0.80491478907185398661,0.10613707219604733012,0.27900504968045902743,0.52122838627917467136,0.32614317535102860246,0.47877161372082538415,0.08799999999999999489,0.10871439178367620082,0.17199999999999998623,0.21240048358756666302,0.26000000000000000888,0.32111487537124283609,1.95454545454545458583,0.06400000000000000133,0.07906501220630995919,0.11000000000000000056,0.13591279096888558842,0.17399999999999998801,0.21497780317519554760,1.71875000000000000000,0.04000000000000000083,0.04941563262894372449,0.06400000000000000133,0.07906501220630995919,0.10399999999999999523,0.12848064483525367674,1.60000000000000008882,0.96665174808616272095,5.87007555084465693085,15.00008519545625418345,5.65580051263296823549,6.83672729893081942976,20.65588570808922241895,0.14125594874930139100,0.85874405125069852573,0.72629123191725741826,0.27370876808274258174,0.24872414960525457417,0.75127585039474542583,1.11047480949839583175,0.33250117198214046432,0.01186661119540530912,-0.01405113780516900612,-0.00123342691556480033,-0.00120364925885042828,0.00398617240088787461,0.18229376811241021494,0.92653262822881254923,0.52354566868623075848,0.42645847332977682154,0.15929227212616800524,-1.18371729457044794209,-0.11753431392682509027,-0.11313045597630169703,0.33586643508268321234,5.14938366635067445998,2.89766780145005942160,2.36020073778296612943,0.88574790297015715268,0.04399999999999999745,0.08600000000000000699,0.11199999999999998845,0.02800000000000000405,0.09800000000000000377,0.05427045917494674465,0.10626341139151933290,0.13665916406213557410,0.03425152773242524235,0.12300578439147269449,0.11399999999999999023,0.02800000000000000058,0.08400000000000000522,0.11199999999999998845,0.20999999999999999223,0.14081475175319929649,0.03455134036167996359,0.10210782370045561052,0.13635935143288085980,0.25936513582435349878,-1.28891895975000436714,-0.00481429846833236145,-0.95305252466732115479,0.19418417242601465622
