patient,trial,SP,DP,ppg_fft_peaks_0,ppg_fft_peaks_heights_0,ppg_fft_peaks_neighbor_avgs_0,hr_0,p2p_0,ppg_max_neighbor_mean_0,ppg_min_0,vpg_max_neighbor_mean_0,vpg_min_0,apg_max_neighbor_mean_0,apg_min_0,ppg3_max_neighbor_mean_0,ppg3_min_0,ppg4_max_neighbor_mean_0,ppg4_min_0,ppg_histogram_up_0,ppg_histogram_up_1,ppg_histogram_up_2,ppg_histogram_up_3,ppg_histogram_up_4,ppg_histogram_down_0,ppg_histogram_down_1,ppg_histogram_down_2,ppg_histogram_down_3,ppg_histogram_down_4,ppg_histogram_down_5,ppg_histogram_down_6,ppg_histogram_down_7,ppg_histogram_down_8,ppg_histogram_down_9,ppg_max_0,vpg_histogram_up_0,vpg_histogram_up_1,vpg_histogram_up_2,vpg_histogram_up_3,vpg_histogram_up_4,vpg_histogram_down_0,vpg_histogram_down_1,vpg_histogram_down_2,vpg_histogram_down_3,vpg_histogram_down_4,vpg_histogram_down_5,vpg_histogram_down_6,vpg_histogram_down_7,vpg_histogram_down_8,vpg_histogram_down_9,vpg_max_0,apg_histogram_up_0,apg_histogram_up_1,apg_histogram_up_2,apg_histogram_up_3,apg_histogram_up_4,apg_histogram_down_0,apg_histogram_down_1,apg_histogram_down_2,apg_histogram_down_3,apg_histogram_down_4,apg_histogram_down_5,apg_histogram_down_6,apg_histogram_down_7,apg_histogram_down_8,apg_histogram_down_9,apg_max_0,ppg3_histogram_up_0,ppg3_histogram_up_1,ppg3_histogram_up_2,ppg3_histogram_up_3,ppg3_histogram_up_4,ppg3_histogram_down_0,ppg3_histogram_down_1,ppg3_histogram_down_2,ppg3_histogram_down_3,ppg3_histogram_down_4,ppg3_histogram_down_5,ppg3_histogram_down_6,ppg3_histogram_down_7,ppg3_histogram_down_8,ppg3_histogram_down_9,ppg3_max_0,ppg4_histogram_up_0,ppg4_histogram_up_1,ppg4_histogram_up_2,ppg4_histogram_up_3,ppg4_histogram_up_4,ppg4_histogram_down_0,ppg4_histogram_down_1,ppg4_histogram_down_2,ppg4_histogram_down_3,ppg4_histogram_down_4,ppg4_histogram_down_5,ppg4_histogram_down_6,ppg4_histogram_down_7,ppg4_histogram_down_8,ppg4_histogram_down_9,ppg4_max_0,usdc_0,usdc_1,usdc_2,usdc_3,usdc_4,usdc_5,dsdc_0,dsdc_1,dsdc_2,dsdc_3,dsdc_4,dsdc_5,dsdc_6,dsdc_7,dsdc_8,dsdc_9,dsdc_10,dsdc_11,dsdc_12,dsdc_13,dsdc_14,dsdc_15,dsdc_16,dsdc_17,dsdc_18,ppg_mean_cycles_match_peak_59,Tc,Ts,Td,Tsteepest,Steepest,TNegSteepest,NegSteepest,TdiaRise,DiaRise,SteepDiaRise,TSystoDiaRise,TdiaToEnd,Ratio,Ts_norm,Td_norm,Tsteepest_norm,TNegSteepest_norm,TdiaRise_norm,TSystoDiaRise_norm,TdiaToEnd_norm,SW25,SW25_norm,DW25,DW25_norm,SWaddDW25,SWaddDW25_norm,DWdivSW25,SW50,SW50_norm,DW50,DW50_norm,SWaddDW50,SWaddDW50_norm,DWdivSW50,SW75,SW75_norm,DW75,DW75_norm,SWaddDW75,SWaddDW75_norm,DWdivSW75,S1,S2,S3,S4,AUCsys,AUCdia,S1_norm,S2_norm,S3_norm,S4_norm,AUCsys_norm,AUCdia_norm,SQI_skew,SQI_kurtosis,apg_a,apg_b,apg_c,apg_d,apg_e,ppg_a,ppg_b,ppg_c,ppg_d,ppg_e,ratio_apg_b,ratio_apg_c,ratio_apg_d,ratio_apg_e,ratio_ppg_b,ratio_ppg_c,ratio_ppg_d,ratio_ppg_e,T_a,T_b,T_c,T_d,T_e,T_a_norm,T_b_norm,T_c_norm,T_d_norm,T_e_norm,T_peak_a,T_peak_b,T_peak_c,T_peak_d,T_peak_e,T_peak_a_norm,T_peak_b_norm,T_peak_c_norm,T_peak_d_norm,T_peak_e_norm,AI,bd,bcda,sdoo
2,2_3,161,89,,,,92.59259259259259522423,81.00000000000000000000,0.96292170709217850266,78.00000000000000000000,0.92214475671397910794,30.00000000000000000000,0.90352622165503448937,18.00000000000000000000,0.75569594002921025577,12.00000000000000000000,0.70991592979153506082,4.00000000000000000000,1.81818181818181812126,0.68181818181818176772,0.45454545454545436378,0.68181818181818198976,1.36363636363636397952,1.55172413793103447510,1.72413793103448265143,1.37931034482758563264,1.72413793103448331756,0.68965517241379326041,0.51724137931034441795,0.51724137931034497306,0.34482758620689663021,0.34482758620689663021,1.20689655172413812245,22.00000000000000000000,0.00000000000000000000,0.68181818181818176772,1.13636363636363602048,0.90909090909090928267,2.27272727272727337322,1.89655172413793104980,0.86206896551724132571,6.20689655172413612405,0.86206896551724165878,0.17241379310344831510,0.00000000000000000000,0.00000000000000000000,0.00000000000000000000,0.00000000000000000000,0.00000000000000000000,13.00000000000000000000,1.36363636363636353543,0.45454545454545453032,0.22727272727272718189,1.13636363636363668661,1.81818181818181856535,0.51724137931034486204,0.34482758620689657469,0.51724137931034464000,0.34482758620689663021,3.10344827586206939429,3.27586206896551423995,1.89655172413793149389,0.00000000000000000000,0.00000000000000000000,0.00000000000000000000,6.00000000000000000000,1.36363636363636353543,0.90909090909090906063,0.90909090909090872756,0.90909090909090928267,0.90909090909090928267,0.00000000000000000000,0.00000000000000000000,0.00000000000000000000,0.34482758620689663021,0.68965517241379326041,3.96551724137930694525,2.58620689655172464327,1.72413793103448331756,0.68965517241379326041,0.00000000000000000000,4.00000000000000000000,0.90909090909090906063,1.13636363636363646457,0.68181818181818154567,1.36363636363636397952,0.90909090909090928267,0.00000000000000000000,0.00000000000000000000,0.34482758620689640816,0.68965517241379326041,3.44827586206896663512,3.27586206896551423995,1.55172413793103469715,0.51724137931034497306,0.17241379310344831510,0.00000000000000000000,18.00000000000000000000,0.03737720704953208239,0.01572250505247484165,-0.06830087740165897980,-0.16175650450493669896,-0.16978003242272038387,-0.09369599489146684945,-0.00760495648441142629,-0.01140391085370099332,0.05710652954618446187,0.14081553305901278739,0.25217398805097912540,0.34215459366590988965,0.42483078247517980230,0.47014141186714208942,0.49206564600490876327,0.51845419559037642099,0.54796339644982916539,0.59667998208076511446,0.63952467657371769860,0.67980407399908870936,0.72221252218991915939,0.75705539923519771239,0.81361245610600008149,0.83724494897391532611,0.89823090820354156705,0.19030054518249395201,0.64400000000000001688,0.17199999999999998623,0.47199999999999997513,0.08799999999999999489,0.07367827149244970952,0.23999999999999999112,-0.03943248774743546292,0.36799999999999999378,0.34019701501183619019,-0.00765285097467049980,0.19600000000000000755,0.27600000000000002309,2.72700197007403488669,0.26705773386847792006,0.73294226613152213545,0.13646187094782341598,0.37256869404137082924,0.57185859833281882381,0.30480086446434084824,0.42814140166718123170,0.10399999999999999523,0.16154677369558506639,0.26800000000000001599,0.41664093856128436855,0.37199999999999999734,0.57818771225686949045,2.57692307692307709388,0.08000000000000000167,0.12426674899660389295,0.12800000000000000266,0.19882679839456623982,0.20799999999999999045,0.32309354739117013278,1.60000000000000008882,0.05200000000000000455,0.08088916332201295800,0.07599999999999999811,0.11793763507255325407,0.12800000000000000266,0.19882679839456623982,1.47619047619047627506,1.41189231007246873695,6.97585191827134920572,15.04479326439834530049,5.72099214005791001370,8.38774422834381816472,20.76578540445625264965,0.16783366239698238598,0.83216633760301772504,0.72452448125986390615,0.27547551874013609385,0.28787690038365965073,0.71212309961634034927,0.57781558699033652715,0.49717832042023035743,0.01002340369590154143,-0.00974013453509287030,-0.00453997119423149575,-0.00592167032484036682,0.00481201984740667332,0.07070732160055868964,0.88458855744808695398,0.88641261221803036019,0.86333860472345502757,0.36773280727408030888,-0.97224225501542171912,-0.45240974586366611288,-0.59208137421793893829,0.48165173101376584919,17.13037896775948354389,17.24645031408667961159,16.70708066731553032014,7.49379036635831319302,0.01600000000000000033,0.11999999999999999556,0.05199999999999999761,0.00800000000000000017,0.13200000000000000622,0.02462179685087989914,0.18616857054646496206,0.08135226921889471274,0.01242667489966038999,0.20469280642173509621,0.15599999999999999978,0.03600000000000000422,0.01600000000000000033,0.02400000000000000050,0.15599999999999999978,0.24243593701759802439,0.05626736647113306233,0.02508490274776165735,0.03751157764742204387,0.24220438406915714702,-0.40940286594758246164,-0.00682087802989216323,0.07224886506618338755,0.01014490429734804175
2,2_2,161,89,,,,94.93670886075949510996,79.00000000000000000000,0.96905233902727894169,0.00000000000000000000,0.91180231418129908949,31.00000000000000000000,0.87935842085865945084,17.00000000000000000000,0.80790878819379652320,11.00000000000000000000,0.83057326906865702743,7.00000000000000000000,1.95652173913043481157,0.65217391304347827052,0.43478260869565199531,0.65217391304347838155,1.30434782608695676309,1.92982456140350877583,1.57894736842105265495,1.05263157894736814058,1.57894736842105287700,1.05263157894736858466,0.52631578947368373722,0.35087719298245617638,0.35087719298245617638,0.52631578947368429233,1.05263157894736858466,23.00000000000000000000,0.00000000000000000000,0.65217391304347827052,1.30434782608695609696,1.08695652173913082095,1.95652173913043503362,1.75438596491228060437,1.05263157894736836262,6.66666666666666429819,0.52631578947368429233,0.00000000000000000000,0.00000000000000000000,0.00000000000000000000,0.00000000000000000000,0.00000000000000000000,0.00000000000000000000,13.00000000000000000000,1.52173913043478270524,0.43478260869565216185,0.21739130434782599766,1.08695652173913082095,1.73913043478260909147,0.00000000000000000000,0.70175438596491224175,0.35087719298245600985,0.52631578947368429233,3.50877192982456254100,3.50877192982455854420,1.40350877192982470554,0.00000000000000000000,0.00000000000000000000,0.00000000000000000000,8.00000000000000000000,1.30434782608695654105,0.43478260869565216185,0.43478260869565199531,0.86956521739130454574,1.95652173913043503362,0.00000000000000000000,0.00000000000000000000,0.00000000000000000000,0.00000000000000000000,0.70175438596491235277,1.22807017543859542386,3.15789473684210575399,2.98245614035087758253,1.05263157894736858466,0.87719298245614063525,36.00000000000000000000,0.65217391304347827052,0.43478260869565216185,0.86956521739130399062,1.73913043478260909147,1.30434782608695676309,0.00000000000000000000,0.00000000000000000000,0.00000000000000000000,0.52631578947368429233,1.75438596491228127050,2.28070175438596312034,1.75438596491228127050,2.28070175438596534079,1.22807017543859675612,0.17543859649122808819,20.00000000000000000000,0.04088664116063812914,0.01613762344729955875,-0.06273289536370725561,-0.17008793820948908682,-0.18236455384916286371,-0.09805513995021739038,-0.00818328551457980433,-0.01521505951398956225,0.05428063443894689394,0.13186575910322789751,0.24993260601192093806,0.34893934133311077517,0.41908782841372643757,0.45468266797245115995,0.47719408443367899997,0.50804093309924758248,0.53996900994398933094,0.58265809405316781877,0.64196483182207453311,0.70268213509721810794,0.74725592522105754867,0.78453001049626203134,0.83926327613639539749,0.84296775720461813997,0.89147338866498282428,0.16987195856423095708,0.64800000000000002043,0.18399999999999999689,0.46399999999999996803,0.09600000000000000200,0.07618250217464947460,0.27200000000000001954,-0.03945539257751284890,0.35599999999999998312,0.36766414775693423422,-0.00660329293905068115,0.17199999999999998623,0.29199999999999998179,2.43296016726503738781,0.28395061728395060152,0.71604938271604945399,0.14814814814814813992,0.41975308641975306312,0.54938271604938271331,0.26543209876543205628,0.45061728395061728669,0.10399999999999999523,0.16049382716049381825,0.27600000000000002309,0.42592592592592593004,0.38000000000000000444,0.58641975308641969278,2.65384615384615418776,0.08000000000000000167,0.12345679012345678327,0.12800000000000000266,0.19753086419753085323,0.20799999999999999045,0.32098765432098763650,1.60000000000000008882,0.05600000000000000117,0.08641975308641974829,0.07199999999999999456,0.11111111111111110494,0.12800000000000000266,0.19753086419753085323,1.28571428571428580945,1.07660702208474545749,7.14291216848651533411,12.94829910006202311479,6.17500998176355597735,8.21951919057126190182,19.12330908182558175668,0.13103661146499420709,0.86896338853500576516,0.67650396683599178793,0.32349603316400821207,0.30067397851151589361,0.69932602148848421741,0.56073513390249507538,0.50841903784934106003,0.01120115836471646115,-0.01020115570243024239,-0.00464087525433454218,-0.00684345038333128430,0.00530964199060940389,0.19225510428477565750,0.85499865832221966233,0.87937918675605220020,0.83754543878504783549,0.41721489359935154395,-0.91769666057900678435,-0.41832037683454847965,-0.62226154810178757604,0.47895488396130997399,4.57866254230820057813,4.71037281620281689243,4.50778698871801442039,2.21944376506682772288,0.05200000000000000455,0.08799999999999999489,0.04399999999999999745,0.02000000000000000042,0.10799999999999999878,0.08024691358024690913,0.13580246913580246160,0.06790123456790123080,0.03086419753086419582,0.16666666666666665741,0.13200000000000000622,0.04399999999999999745,0.00000000000000000000,0.02000000000000000042,0.12800000000000000266,0.20370370370370369240,0.06790123456790123080,0.00000000000000000000,0.03086419753086419582,0.19753086419753085323,-0.35606961960398075817,-0.00639440090612710538,0.12288526435732927133,0.00604086685252290360
2,2_1,161,89,,,,100.00000000000000000000,75.00000000000000000000,0.96987816793356118605,0.00000000000000000000,0.93230505294489685042,32.00000000000000000000,0.89389541861619081775,18.00000000000000000000,0.93133751976072076673,10.00000000000000000000,0.78001262027305429125,7.00000000000000000000,1.87500000000000000000,0.62500000000000000000,0.41666666666666651864,0.62500000000000011102,1.45833333333333370341,1.07142857142857139685,1.60714285714285720630,1.60714285714285654016,1.96428571428571485669,0.71428571428571441260,0.53571428571428525434,0.53571428571428580945,0.35714285714285720630,0.53571428571428580945,1.07142857142857161890,24.00000000000000000000,0.00000000000000000000,0.41666666666666668517,1.24999999999999955591,1.25000000000000022204,2.08333333333333392545,1.96428571428571419055,0.89285714285714290472,4.46428571428571263624,2.67857142857142926928,0.00000000000000000000,0.00000000000000000000,0.00000000000000000000,0.00000000000000000000,0.00000000000000000000,0.00000000000000000000,13.00000000000000000000,1.25000000000000000000,0.62500000000000000000,0.41666666666666651864,0.83333333333333348136,1.87500000000000022204,0.35714285714285715079,0.35714285714285715079,0.53571428571428547638,0.53571428571428580945,2.32142857142857206298,3.39285714285713968508,1.60714285714285742834,0.89285714285714312677,0.00000000000000000000,0.00000000000000000000,8.00000000000000000000,1.66666666666666674068,0.41666666666666668517,0.62499999999999977796,0.62500000000000011102,1.66666666666666696273,0.00000000000000000000,0.00000000000000000000,0.00000000000000000000,0.00000000000000000000,0.71428571428571441260,0.89285714285714212757,3.75000000000000088818,1.60714285714285742834,1.96428571428571485669,1.07142857142857161890,3.00000000000000000000,0.62500000000000000000,0.62500000000000000000,0.83333333333333303727,2.08333333333333392545,0.83333333333333348136,0.00000000000000000000,0.00000000000000000000,0.17857142857142851988,0.35714285714285720630,1.07142857142857161890,4.82142857142856762209,2.67857142857142926928,0.89285714285714312677,0.00000000000000000000,0.00000000000000000000,21.00000000000000000000,0.05353117418445200310,0.03178689013503258054,-0.05587151429910290623,-0.15719599890424501565,-0.16642046964654205743,-0.08901073674198475838,-0.00723337912454599143,-0.01664412519271186996,0.04340452214256318442,0.11465688401799069285,0.22381794311355474036,0.32748632986056380734,0.40416202399138057011,0.46088385090666095234,0.48704359035175626147,0.50584919067378919522,0.52758498235379458485,0.55317237200552094034,0.57877815011514821553,0.61570293581382928849,0.65212269564155744828,0.69932118581204094632,0.76206565495190670134,0.79626347408671849237,0.87744839274572683507,0.21676435310454592043,0.59999999999999997780,0.17199999999999998623,0.42799999999999999156,0.08399999999999999134,0.07347738550353100084,0.24399999999999999467,-0.03947902097412731015,0.35599999999999998312,0.33565672612487829074,-0.00756552246578451326,0.18399999999999999689,0.24399999999999999467,2.70104239102387300164,0.28669275929549897786,0.71330724070450091112,0.13956591353851627302,0.40642234477850913699,0.59357765522149086301,0.30688489592599177413,0.40642234477850913699,0.10399999999999999523,0.17345668030599536991,0.28000000000000002665,0.46771037181996089060,0.38400000000000000799,0.64116705212595626051,2.69230769230769251266,0.07599999999999999811,0.12693470912648993631,0.12399999999999999911,0.20663582992350115752,0.20000000000000001110,0.33357053904999112159,1.63888888888888883955,0.05200000000000000455,0.08690624444049101227,0.07599999999999999811,0.12657890055150328168,0.12800000000000000266,0.21348514499199430783,1.47619047619047627506,0.94491586837252805609,6.90908613748288580325,13.64536973202970315810,5.43549073004589367031,7.85400200585541341525,19.08086046207559860477,0.12063880741754656745,0.87936119258245337704,0.71493456001618538309,0.28506543998381456140,0.29161553075616591935,0.70838446924383413617,0.52660397340419584644,0.50596932003620653795,0.01025918729153280085,-0.00655279414323642340,-0.00488218029970227674,-0.00592391677253856219,0.00519337993642141060,0.16464365733626010191,0.74047981896335191010,0.79649887410862540982,0.84332093237819205633,0.44927769378621057461,-0.62427808704268117346,-0.46856340127435691656,-0.57497347922682839894,0.50514307111444145537,4.46748745543928560409,4.81481165516374964852,5.13296943412162942622,2.74268279883421595144,0.04000000000000000083,0.07199999999999999456,0.02400000000000000050,0.05599999999999999423,0.09199999999999999845,0.06635829923501156136,0.11937377690802347674,0.03931684753602561477,0.09553460238391744963,0.15290873510051591899,0.13200000000000000622,0.05999999999999999778,-0.03599999999999999728,0.02000000000000000042,0.11200000000000000233,0.22033446006048745813,0.10096068315246396752,-0.06164383561643835274,0.03389076676747909689,0.18679950186799501588,-0.08588427765593723007,-0.00757263099513883105,0.41925879345850425306,0.01075463619932618374
10,10_1,124,62,,,,76.92307692307693400835,97.50000000000000000000,0.97615837643548353242,77.00000000000000000000,0.87899210239835434688,27.00000000000000000000,0.77258992270284598813,9.00000000000000000000,0.77535463592374409547,4.00000000000000000000,0.61990999585073525147,64.00000000000000000000,1.25000000000000000000,0.62500000000000000000,0.41666666666666651864,0.62500000000000011102,2.08333333333333392545,0.71428571428571430157,0.89285714285714290472,1.42857142857142815906,1.42857142857142882519,0.89285714285714312677,1.78571428571428425514,0.71428571428571441260,0.53571428571428580945,0.35714285714285720630,1.25000000000000022204,24.00000000000000000000,0.00000000000000000000,1.04166666666666674068,1.45833333333333281523,1.04166666666666696273,1.45833333333333370341,2.14285714285714279370,1.96428571428571419055,4.99999999999999822364,0.89285714285714312677,0.00000000000000000000,0.00000000000000000000,0.00000000000000000000,0.00000000000000000000,0.00000000000000000000,0.00000000000000000000,10.00000000000000000000,1.45833333333333325932,1.25000000000000000000,0.20833333333333325932,0.83333333333333348136,1.25000000000000022204,0.00000000000000000000,0.89285714285714290472,2.49999999999999911182,3.03571428571428603149,1.78571428571428625354,1.42857142857142727088,0.35714285714285720630,0.00000000000000000000,0.00000000000000000000,0.00000000000000000000,5.00000000000000000000,0.62500000000000000000,0.41666666666666668517,0.62499999999999977796,2.08333333333333392545,1.25000000000000022204,0.00000000000000000000,0.00000000000000000000,0.00000000000000000000,0.35714285714285720630,0.89285714285714312677,3.03571428571428336696,3.03571428571428603149,1.96428571428571485669,0.53571428571428580945,0.17857142857142860315,32.00000000000000000000,0.00000000000000000000,0.83333333333333337034,2.08333333333333259318,1.45833333333333370341,0.62500000000000011102,0.00000000000000000000,0.35714285714285715079,0.53571428571428547638,2.32142857142857206298,1.60714285714285742834,2.49999999999999777955,1.60714285714285742834,0.71428571428571441260,0.35714285714285720630,0.00000000000000000000,13.00000000000000000000,0.05661786271164995221,0.01639248389661206173,-0.12967268958910943555,-0.22463152634685695785,-0.17894865417728669788,-0.07933636789590806093,-0.00561638265788434645,-0.01065758064521808886,0.06522878960974537454,0.13828942717905085003,0.19970173068290481000,0.24536293517104101891,0.25126575085462121706,0.24910399873682903538,0.27600771748153118956,0.32805089293810740791,0.38242080505870534868,0.41694837287285468896,0.44980145196906251570,0.49452563620574641057,0.54321778982718305073,0.59007910977225841442,0.63382650257105366265,0.69580671326888343664,0.83834863853451291327,0.27376301379878431597,0.81200000000000005507,0.25200000000000000178,0.56000000000000005329,0.08799999999999999489,0.06164496698571972355,0.32000000000000000666,-0.03137709615391920392,0.43199999999999999512,0.61305992486187954604,-0.00156166439093513576,0.17999999999999999334,0.38000000000000000444,1.64413772163249438663,0.31004854368932038833,0.68995145631067966718,0.10825242718446602408,0.39388349514563103515,0.53169902912621358482,0.22165048543689319649,0.46830097087378641518,0.20000000000000001110,0.24621359223300970376,0.47999999999999998224,0.59067961165048543659,0.67999999999999993783,0.83689320388349508484,2.39743589743589780028,0.16000000000000000333,0.19694174757281551758,0.26800000000000001599,0.32932038834951460338,0.42799999999999999156,0.52626213592233006544,1.66541353383458634596,0.12399999999999999911,0.15252427184466021970,0.10000000000000000555,0.12310679611650485188,0.22399999999999997691,0.27563106796116504382,0.81092436974789916526,1.64945606958226376193,14.73261204642644628393,15.45278697082756735881,13.59175242637394553924,16.38206811600871048995,29.04453939720151467441,0.09746799429316531371,0.90253200570683467241,0.53227224230127045956,0.46772775769872954044,0.36104118236203686099,0.63895881763796313901,0.14450386574265844386,0.54917244636841955341,0.00854021086312861666,-0.00532368140128181011,0.00169047165315688863,-0.00530475761921955780,0.00617169143265983156,0.26279752040696091608,0.69248062567923307498,0.97610541844893661256,0.89564335338398382014,0.61644388680073269882,-0.68620981874082920271,0.20491010245826102310,-0.62418290970995049527,0.70079727787127510386,2.71091983658565816029,3.81507617641858498558,3.50991375783848047476,2.43534774317549063127,0.03200000000000000067,0.06800000000000000488,0.10399999999999999523,0.08799999999999999489,0.11999999999999999556,0.03941747572815533507,0.08354368932038835904,0.12781553398058251303,0.10883495145631068290,0.14737864077669904361,0.22000000000000000111,0.15199999999999999623,-0.04800000000000000100,0.04000000000000000083,0.16000000000000000333,0.27063106796116503938,0.18708737864077668034,-0.05927184466019418119,0.04956310679611650866,0.19694174757281551758,-0.96773428936041472337,-0.00324978054332847842,-0.26693701148913967502,0.02584124111679053995
10,10_2,124,62,,,,87.20930232558139039156,86.00000000000000000000,0.97669702761211940611,79.00000000000000000000,0.91532437128915200564,29.00000000000000000000,0.84646953251885004299,5.00000000000000000000,0.72513777949827118441,1.00000000000000000000,0.56328321925149837934,38.00000000000000000000,0.40000000000000002220,0.80000000000000004441,0.39999999999999985567,0.80000000000000015543,2.60000000000000053291,0.72727272727272729291,1.63636363636363646457,1.27272727272727226300,1.27272727272727292913,2.18181818181818254487,0.72727272727272662678,0.36363636363636370197,0.54545454545454563622,0.36363636363636370197,0.90909090909090939370,25.00000000000000000000,0.00000000000000000000,0.59999999999999997780,2.19999999999999928946,0.80000000000000015543,1.40000000000000035527,1.27272727272727270709,0.72727272727272729291,4.36363636363636242521,3.09090909090909127244,0.54545454545454563622,0.00000000000000000000,0.00000000000000000000,0.00000000000000000000,0.00000000000000000000,0.00000000000000000000,7.00000000000000000000,1.60000000000000008882,1.80000000000000004441,0.19999999999999992784,0.40000000000000007772,1.00000000000000022204,0.36363636363636364646,0.72727272727272729291,2.72727272727272618269,4.00000000000000088818,0.72727272727272740394,0.54545454545454497008,0.72727272727272740394,0.18181818181818185098,0.00000000000000000000,0.00000000000000000000,3.00000000000000000000,0.59999999999999997780,0.59999999999999997780,1.39999999999999946709,2.00000000000000044409,0.40000000000000007772,0.00000000000000000000,0.00000000000000000000,1.27272727272727226300,1.81818181818181878739,2.90909090909090961574,1.45454545454545325356,1.45454545454545480787,1.09090909090909127244,0.00000000000000000000,0.00000000000000000000,0.00000000000000000000,1.00000000000000000000,2.39999999999999991118,0.99999999999999966693,0.40000000000000007772,0.20000000000000003886,0.00000000000000000000,0.36363636363636364646,1.09090909090909060630,2.00000000000000044409,2.18181818181818254487,2.72727272727272485042,0.90909090909090939370,0.54545454545454563622,0.18181818181818185098,0.00000000000000000000,78.00000000000000000000,0.01424070033245567780,-0.08636058754648515134,-0.21846771002514725479,-0.25306746264759827358,-0.18359330668938739217,-0.08586316796099563442,-0.00564655285463700612,-0.01046496855580500082,0.02432154918431211205,0.10847051895428359847,0.22620357170162475047,0.30754950857364149464,0.33010156251657213344,0.32468867166510151367,0.31507029543726339238,0.35078529202212249682,0.40694533648842423634,0.46392627991851093094,0.49990640934529728678,0.56127337523030174093,0.60571762663576178554,0.65276366256806261923,0.72052648989652468003,0.77123565504991975494,0.82244804917556146862,0.23096823041026964818,0.76400000000000001243,0.23999999999999999112,0.52400000000000002132,0.06400000000000000133,0.05765311113335802595,0.30399999999999999245,-0.03434772833808336090,0.40400000000000002576,0.57665067597211661088,0.00159837069981888513,0.16400000000000000688,0.35999999999999998668,1.72064741081168381953,0.31414473684210525439,0.68585526315789469010,0.08382675438596491613,0.39802631578947367252,0.52878289473684203514,0.21463815789473683626,0.47121710526315785383,0.23999999999999999112,0.31414473684210525439,0.45200000000000001288,0.59205043859649120197,0.69199999999999994849,0.90619517543859640085,1.88333333333333330373,0.17999999999999999334,0.23552631578947369473,0.26000000000000000888,0.34046052631578949121,0.44000000000000000222,0.57598684210526318594,1.45833333333333348136,0.14800000000000002043,0.19364035087719300154,0.08399999999999999134,0.10992324561403507555,0.23199999999999998401,0.30356359649122810485,0.56911764705882350590,1.50909818505496740038,15.57066464961004115253,12.65780191504675222802,10.82937326536025324231,17.07976283466500788677,23.48717518040700369397,0.07801469184806422708,0.92198530815193580068,0.54153815921799686173,0.45846184078200313827,0.41850794613333303085,0.58149205386666702466,0.18256613523212156247,0.53263193589102320047,0.01026692027416742370,-0.00857102892425903873,0.00190709046325560072,-0.00613155706945339718,0.00621074775049884620,0.37199782946871828848,0.80674760705616477274,0.93858788599479003878,0.88949657165016704496,0.59063041055863185758,-0.83840210498847578258,0.18455756288586244729,-0.58662440105552970948,0.60891473947006580225,2.22155320675067757819,2.57444028108602207539,2.43783105369915231719,1.62230475241485994076,0.01200000000000000025,0.07599999999999999811,0.15199999999999999623,0.03600000000000000422,0.09199999999999999845,0.01567982456140350894,0.09956140350877193401,0.19912280701754386802,0.04698464912280701788,0.12033991228070174684,0.22800000000000000822,0.15199999999999999623,0.00000000000000000000,0.03600000000000000422,0.12800000000000000266,0.29846491228070176627,0.19890350877192983226,0.00021929824561403577,0.04720394736842105365,0.16754385964912280049,-1.04525000628887432264,-0.00253294404081120389,-0.43633526681880852038,0.03737649843303507413
10,10_3,124,62,,,,79.36507936507936733506,94.50000000000000000000,0.98305314229228879519,79.00000000000000000000,0.83935661344440748444,30.00000000000000000000,0.82900724870819297863,10.00000000000000000000,0.67383026575212134901,7.00000000000000000000,0.50731398974218566700,73.00000000000000000000,1.19999999999999995559,0.59999999999999997780,0.39999999999999985567,0.40000000000000007772,2.40000000000000035527,2.00000000000000000000,0.54545454545454541417,0.72727272727272695985,0.90909090909090939370,1.27272727272727292913,1.81818181818181656695,0.54545454545454563622,0.54545454545454563622,0.54545454545454563622,1.09090909090909127244,25.00000000000000000000,0.00000000000000000000,1.39999999999999991118,1.39999999999999946709,1.00000000000000022204,1.20000000000000017764,1.27272727272727270709,2.90909090909090917165,4.54545454545454408191,1.27272727272727292913,0.00000000000000000000,0.00000000000000000000,0.00000000000000000000,0.00000000000000000000,0.00000000000000000000,0.00000000000000000000,10.00000000000000000000,1.00000000000000000000,1.80000000000000004441,0.19999999999999992784,0.80000000000000015543,1.20000000000000017764,0.00000000000000000000,0.00000000000000000000,1.09090909090909060630,3.09090909090909127244,3.45454545454545502992,1.45454545454545325356,0.90909090909090939370,0.00000000000000000000,0.00000000000000000000,0.00000000000000000000,6.00000000000000000000,0.80000000000000004441,0.40000000000000002220,0.59999999999999975575,2.60000000000000053291,0.60000000000000008882,0.00000000000000000000,0.00000000000000000000,0.00000000000000000000,1.09090909090909127244,3.81818181818181923148,2.90909090909090650712,1.63636363636363668661,0.54545454545454563622,0.00000000000000000000,0.00000000000000000000,1.00000000000000000000,0.20000000000000001110,2.20000000000000017764,1.59999999999999942268,0.60000000000000008882,0.40000000000000007772,0.00000000000000000000,0.72727272727272729291,1.63636363636363579843,3.45454545454545502992,2.54545454545454585826,1.09090909090908994017,0.36363636363636370197,0.18181818181818185098,0.00000000000000000000,0.00000000000000000000,14.00000000000000000000,0.03819327241964672048,-0.03503306250959913742,-0.17392468069268801623,-0.25841206792639626055,-0.19904193611231235650,-0.09150454747751940454,-0.00750302286294356711,-0.03032408709779038300,0.00779990176011665162,0.07097734252819823397,0.16925290861770131423,0.22080464879261019195,0.22863000386107559803,0.22953696749936258747,0.24337243255838242328,0.27595875137337078087,0.30825859513100023479,0.35472233665060037833,0.41885120954061211274,0.50730637138204093262,0.63418302077761823377,0.76194255797476040382,0.85672733595108407911,0.91093492419087040979,0.97492927651421057433,0.20911829857533412169,0.85999999999999998668,0.34799999999999997602,0.51200000000000001066,0.21200000000000002176,0.07410328622218270711,0.43599999999999999867,-0.03538250131468301252,0.51200000000000001066,0.56789877733553106864,-0.00347501383520765206,0.16399999999999997913,0.34799999999999997602,1.69623997197285847349,0.40531417690842996837,0.59468582309157003163,0.24688419594945473778,0.50765968495759050683,0.59572442444175177645,0.19041024753332180808,0.40427557555824822355,0.16399999999999997913,0.19105937337718539859,0.35199999999999997957,0.40951185736541462212,0.51600000000000001421,0.60057123074259988194,2.17270531400966193658,0.13600000000000000977,0.15842998095897525834,0.26400000000000001243,0.30768564999134495608,0.40000000000000002220,0.46611563095032026993,1.93333333333333334814,0.10799999999999999878,0.12593041370953783620,0.09600000000000000200,0.11138999480699325606,0.20400000000000001465,0.23732040851653107838,0.94886363636363635354,2.49463448393071640652,12.85997450704167199831,15.12262327299526987190,11.98406795937613189551,15.35460899097238751665,27.10669123237140354377,0.16375413143107442338,0.83624586856892557662,0.55159792814402086591,0.44840207185597902306,0.36288504448601810459,0.63711495551398189541,0.24339169960853218599,0.60656785281297154189,0.00572242798831048075,-0.01294811911825050066,0.00278991351671875609,-0.00791728785320916506,0.00605544933946516872,0.07477797585862691609,0.78482769013506892275,0.89879216269004236217,0.85400876553812943293,0.64165823958688483764,-2.28352782810663246238,0.49548732001157846927,-1.35404946340774090530,1.06991710263781802936,10.61635043460641192326,12.24218355591727380727,11.63970130311837891668,8.79821452199548659223,0.00400000000000000008,0.22800000000000000822,0.09199999999999999845,0.07600000000000001199,0.05600000000000000117,0.00458715596330275255,0.26562229530898390228,0.10602388783105418102,0.08936299117188852004,0.06525878483642028050,0.34399999999999997247,0.11599999999999999201,-0.02400000000000000050,0.05200000000000000455,0.10799999999999999878,0.40072702094512724358,0.13510472563614334129,-0.02908083780508914640,0.06028215336679938058,0.12554093820321965413,-2.49488278734828794470,-0.00329309562731143046,-1.42496568471046991533,0.01843552887686418160
21,21_3,178,86,,,,80.64516129032257651943,93.00000000000000000000,0.97525118237285290945,0.00000000000000000000,0.89778066811847023754,30.00000000000000000000,0.89321495001888828735,14.00000000000000000000,0.63244368823630980891,8.00000000000000000000,0.68379527927148819888,3.00000000000000000000,1.42857142857142860315,0.71428571428571430157,0.47619047619047599751,0.71428571428571441260,1.66666666666666696273,0.50847457627118641810,4.23728813559322059490,1.01694915254237261415,0.67796610169491533515,0.50847457627118652912,0.50847457627118597401,0.50847457627118652912,0.33898305084745766758,0.50847457627118652912,1.18644067796610186427,21.00000000000000000000,0.00000000000000000000,0.47619047619047616404,1.42857142857142815906,0.95238095238095255013,2.14285714285714323779,2.20338983050847447842,1.35593220338983044826,4.06779661016949045660,2.37288135593220372854,0.00000000000000000000,0.00000000000000000000,0.00000000000000000000,0.00000000000000000000,0.00000000000000000000,0.00000000000000000000,9.00000000000000000000,2.14285714285714279370,0.23809523809523808202,0.47619047619047599751,0.71428571428571441260,1.42857142857142882519,0.00000000000000000000,1.01694915254237283619,1.52542372881355881020,2.03389830508474611648,4.91525423728813670721,0.50847457627118597401,0.00000000000000000000,0.00000000000000000000,0.00000000000000000000,0.00000000000000000000,4.00000000000000000000,1.90476190476190465617,0.47619047619047616404,0.95238095238095199502,0.95238095238095255013,0.71428571428571441260,0.00000000000000000000,0.00000000000000000000,0.00000000000000000000,0.00000000000000000000,1.86440677966101753249,4.91525423728813048996,2.37288135593220372854,0.67796610169491533515,0.00000000000000000000,0.16949152542372883379,0.00000000000000000000,0.95238095238095232808,0.71428571428571430157,1.90476190476190399004,1.42857142857142882519,0.00000000000000000000,0.00000000000000000000,0.00000000000000000000,0.33898305084745750104,1.35593220338983067030,3.05084745762711895267,3.55932203389830181806,1.18644067796610186427,0.16949152542372883379,0.33898305084745766758,0.00000000000000000000,79.00000000000000000000,0.01737123262703558699,-0.06047688328690226794,-0.18212779936476869436,-0.26047327206168047198,-0.22249309870862010730,-0.11200319389968066419,-0.00998541545294692051,-0.01477933878961157008,0.04709385784483720305,0.13288880978144887446,0.24111922930337531534,0.33570074548392314640,0.43361433586759468017,0.52765349498484637181,0.60384181186661800567,0.66610759320828394348,0.71232109355990158583,0.76087216729101014856,0.80331457113869464415,0.82690924572532953363,0.83064917366886870109,0.80731103681210147904,0.80286539740173101798,0.78560497764682457600,0.81591429508927659775,0.10793582525057265897,0.72799999999999998046,0.27200000000000001954,0.45600000000000001643,0.15199999999999999623,0.06545977511484019074,0.33600000000000002087,-0.03122391749451303156,0.42799999999999999156,0.56192357803057824128,-0.01570501441679567067,0.15599999999999999978,0.30000000000000004441,2.22126367635671240208,0.36426767676767679571,0.63573232323232331531,0.19431818181818180657,0.45138888888888889506,0.56313131313131314926,0.19886363636363635354,0.43686868686868685074,0.14400000000000001688,0.20202020202020201656,0.28400000000000003020,0.40429292929292925951,0.42800000000000004707,0.60631313131313135933,1.98750000000000004441,0.10799999999999999878,0.15151515151515149160,0.15999999999999997558,0.23459595959595960779,0.26800000000000001599,0.38611111111111107164,1.51666666666666660745,0.07999999999999998779,0.11250000000000000278,0.09199999999999999845,0.13573232323232323204,0.17199999999999998623,0.24823232323232324870,1.17676767676767668469,1.41904723527767284708,9.97533763422696040379,10.77138460631268301881,9.46649081381718460193,11.39438486950463413905,20.23787542012986762074,0.12377152129081987753,0.87622847870918008084,0.56610938130126542411,0.43389061869873457589,0.36333529358156924083,0.63666470641843075917,0.50057030688366688231,0.53564356768781351548,0.00749096170196550740,-0.00688263698026880810,-0.00233629843215305000,-0.00467075170444025689,0.00224062172625077993,0.12641095317138439924,0.85058123862667911474,0.92637015317282633831,0.86611181799302006112,0.56823374756320821355,-1.11885352803517967857,-0.38763511896348329389,-0.92980593701101332815,0.56244002988483166039,6.77060536649207556081,7.37550969210966211875,6.86833480196197765366,4.52964347926532173716,0.01200000000000000025,0.18800000000000000044,0.07599999999999999811,0.03200000000000000067,0.08400000000000000522,0.02083333333333333218,0.24002525252525253041,0.11515151515151514361,0.03876262626262626243,0.12904040404040403867,0.26000000000000000888,0.07199999999999999456,0.00400000000000000008,0.03600000000000000422,0.11999999999999999556,0.34343434343434342537,0.10340909090909090884,0.01174242424242424171,0.05050505050505050414,0.17954545454545453587,-0.36385250194551482794,-0.00445510048251962325,0.19858752793931688796,0.01605033716733567095
21,21_2,178,86,,,,81.96721311475410232106,91.50000000000000000000,0.97773096683483873282,74.00000000000000000000,0.90609109844502544462,30.00000000000000000000,0.90367207298907359370,13.00000000000000000000,0.73224655023559237499,8.00000000000000000000,0.70959110799976987671,5.00000000000000000000,1.80000000000000004441,0.40000000000000002220,0.59999999999999975575,0.60000000000000008882,1.60000000000000031086,2.18181818181818165669,1.63636363636363646457,0.90909090909090883859,0.90909090909090939370,0.90909090909090939370,0.72727272727272662678,0.54545454545454563622,0.54545454545454563622,0.36363636363636370197,1.27272727272727292913,25.00000000000000000000,0.00000000000000000000,0.80000000000000004441,1.39999999999999946709,1.20000000000000017764,1.60000000000000031086,1.81818181818181812126,2.18181818181818165669,5.81818181818181567877,0.18181818181818185098,0.00000000000000000000,0.00000000000000000000,0.00000000000000000000,0.00000000000000000000,0.00000000000000000000,0.00000000000000000000,12.00000000000000000000,2.00000000000000000000,0.20000000000000001110,0.39999999999999985567,1.00000000000000022204,1.40000000000000035527,0.00000000000000000000,0.90909090909090906063,0.54545454545454530315,0.18181818181818185098,5.27272727272727337322,2.72727272727272485042,0.36363636363636370197,0.00000000000000000000,0.00000000000000000000,0.00000000000000000000,7.00000000000000000000,1.00000000000000000000,0.40000000000000002220,0.59999999999999975575,1.80000000000000026645,1.20000000000000017764,0.00000000000000000000,0.00000000000000000000,0.00000000000000000000,0.00000000000000000000,0.00000000000000000000,3.09090909090908816381,4.36363636363636508975,1.27272727272727292913,0.54545454545454563622,0.72727272727272740394,32.00000000000000000000,1.00000000000000000000,1.39999999999999991118,1.19999999999999951150,1.00000000000000022204,0.40000000000000007772,0.18181818181818182323,0.90909090909090906063,0.72727272727272695985,2.90909090909090961574,2.00000000000000044409,2.18181818181817988034,0.54545454545454563622,0.36363636363636370197,0.00000000000000000000,0.18181818181818185098,31.00000000000000000000,0.06515413584579828055,0.04238339448321526426,-0.06579820664527091800,-0.18121297690986684636,-0.18013781012308674456,-0.08732674945481626316,-0.01181602144714140323,-0.04104853298045638144,0.02216114215183553546,0.09307887713028739629,0.17909467953730254242,0.25755534843519461985,0.31283050633380832251,0.37764626621993918620,0.43624428193849396074,0.49414255641707055533,0.56458018508596596874,0.62078989935517780996,0.68315052898145489646,0.74795905069454526881,0.79147146048318595124,0.82940815609678963938,0.85172120931839179203,0.86048343709363217524,0.92433486245211193832,0.10819803485612472516,0.66400000000000003464,0.22400000000000000466,0.44000000000000000222,0.09333333333333333759,0.06431757255923757632,0.29866666666666663588,-0.03351825174141383895,0.42933333333333328907,0.40250752786962890051,-0.01345083544986254952,0.20533333333333333992,0.23466666666666666230,2.53988573512331150539,0.34251743250491689663,0.65748256749508315888,0.14124202872638416673,0.45604028845580790730,0.64955599260980989573,0.30703856010489299910,0.35044400739019004876,0.15199999999999999623,0.23320221705703558790,0.29066666666666668428,0.44792299898682874648,0.44266666666666659724,0.68112521604386433438,1.91033138401559443587,0.11999999999999999556,0.18428392633649204324,0.17066666666666666097,0.26326360331366588374,0.29066666666666668428,0.44754752965015792698,1.41904761904761911318,0.08533333333333333048,0.13144406698849753212,0.08800000000000000877,0.13368496334704094153,0.17333333333333333925,0.26512903033553847365,1.05555555555555558023,1.40340481517374837672,11.79090408735272355045,16.83376683443783505822,5.86766771961187316720,13.19430890252647259331,22.70143455404970822542,0.10765253921732161058,0.89234746078267834779,0.74150408259352662554,0.25849591740647331894,0.36746305790568173366,0.63253694209431821083,0.18643621783852692975,0.54942353627268847305,0.00805657864434946615,-0.00621294960373508509,-0.00271244221224742343,-0.00515302074169491763,0.00231958926585488579,0.21588894766424274185,0.77802480591776623786,0.95185618923877246544,0.89957928804586473337,0.57490199606845115987,-0.77165185847719319767,-0.33425590105789293460,-0.64610706389144700879,0.29221289103041653279,4.12838972921859248544,5.11339409815018353100,4.83526588895829068093,3.07942209736255101404,0.04799999999999999406,0.08000000000000000167,0.08266666666666666607,0.04266666666666666524,0.08800000000000000877,0.07421777221526908164,0.12107992133023422199,0.12416115382323140992,0.06759044043149174674,0.13078848560700875869,0.17600000000000001754,0.09599999999999998812,-0.01333333333333333419,0.02933333333333333279,0.11733333333333334503,0.26829966028964774560,0.14721973895941356525,-0.02305858513618213104,0.04453185529530961917,0.17532034090231837786,-0.08350178455826977320,-0.00416752837251189220,0.20871110647214682898,0.00928466514203468013
21,21_1,178,86,,,,89.28571428571429180465,84.00000000000000000000,0.97862138556906619336,73.00000000000000000000,0.90120551319345665320,30.00000000000000000000,0.82199179904715469203,11.00000000000000000000,0.76515933328757246290,4.00000000000000000000,0.56604753875701763199,2.00000000000000000000,1.53846153846153854694,0.38461538461538463674,0.57692307692307676081,0.57692307692307709388,1.92307692307692357225,0.92592592592592593004,1.66666666666666674068,1.11111111111111071637,0.92592592592592615208,0.92592592592592615208,1.11111111111111027228,0.74074074074074092167,0.74074074074074092167,0.37037037037037046083,1.48148148148148184333,26.00000000000000000000,0.00000000000000000000,0.96153846153846156408,1.34615384615384559019,0.96153846153846178613,1.73076923076923105960,1.66666666666666674068,5.92592592592592559697,2.22222222222222143273,0.18518518518518523042,0.00000000000000000000,0.00000000000000000000,0.00000000000000000000,0.00000000000000000000,0.00000000000000000000,0.00000000000000000000,11.00000000000000000000,2.30769230769230748734,0.38461538461538463674,0.57692307692307676081,0.57692307692307709388,1.15384615384615418776,0.00000000000000000000,1.29629629629629627985,0.55555555555555535818,2.40740740740740788439,4.07407407407407529121,1.66666666666666518637,0.00000000000000000000,0.00000000000000000000,0.00000000000000000000,0.00000000000000000000,6.00000000000000000000,0.76923076923076927347,0.57692307692307687184,0.96153846153846123102,1.73076923076923105960,0.96153846153846178613,0.00000000000000000000,0.00000000000000000000,0.00000000000000000000,0.00000000000000000000,0.74074074074074092167,2.40740740740740521986,4.25925925925926041060,1.85185185185185230416,0.37037037037037046083,0.37037037037037046083,3.00000000000000000000,0.57692307692307687184,0.57692307692307687184,0.76923076923076894040,2.30769230769230837552,0.76923076923076938449,0.00000000000000000000,0.00000000000000000000,0.00000000000000000000,0.92592592592592615208,2.03703703703703764560,1.85185185185185030576,2.96296296296296368666,1.11111111111111138250,1.11111111111111138250,0.00000000000000000000,35.00000000000000000000,0.07523045189533619781,0.03482641923099759340,-0.11614172934109921742,-0.21858885652421600199,-0.18644188803686229106,-0.08257484047554737583,-0.00822497159269257663,-0.03812617019516553740,-0.00764220449106733490,0.04193092143448855225,0.11263456274133779034,0.17220761015193775112,0.21792390599663030715,0.25005116535326449290,0.28559378654820688492,0.33461434670952228121,0.40508086094152373491,0.47199015973876334851,0.53926586579498048124,0.60370234227012575801,0.65659851079004938335,0.71183379699642812533,0.73903739146445435182,0.78160274301959797860,0.86057520941400089676,0.16596247022724866516,0.67999999999999993783,0.21599999999999999756,0.46399999999999996803,0.07599999999999999811,0.07295950631666001107,0.28800000000000003375,-0.03354562328826854456,0.37600000000000000089,0.58424237431740966286,-0.01277015090716049350,0.16000000000000000333,0.30399999999999999245,1.69128438337193798269,0.31762749445676274895,0.68237250554323725105,0.11211197339246120608,0.42364190687361419352,0.55279933481152987440,0.23517184035476718096,0.44720066518847007009,0.14799999999999999267,0.21771064301552106590,0.32000000000000000666,0.47200665188470070088,0.46799999999999997158,0.68971729490022171127,2.16666666666666696273,0.12399999999999999911,0.18237250554323725105,0.20400000000000001465,0.30058203991130821864,0.32800000000000001377,0.48295454545454541417,1.64791666666666669627,0.09199999999999999845,0.13525498891352549791,0.09600000000000000200,0.14176829268292684416,0.18800000000000000044,0.27702328159645228656,1.04924242424242430971,0.69241977069792626232,12.49840233181885196245,15.04384659412320957017,9.90438260373929324487,13.19082210251677977908,24.94822919786250281504,0.05418454054365871853,0.94581545945634126760,0.60237867924944943354,0.39762132075055067748,0.34490582874995928675,0.65509417125004076876,0.13436753206068982602,0.61263374093216005356,0.01210244392735034674,-0.00617900536618182228,0.00074096617411112398,-0.00576619433599939724,0.00447356517024777300,0.23053453774459553571,0.69641643882406101262,0.97590412578752672168,0.84994730558625897210,0.58981823064554450564,-0.50984774457098169798,0.06127729038701916486,-0.47634421016473360577,0.37030006348395094751,3.02661021612515224177,4.23356953081075459977,3.68989155342883279332,2.56206629297874144413,0.04399999999999999745,0.05600000000000000117,0.08799999999999999489,0.08399999999999999134,0.08399999999999999134,0.06457871396895786820,0.08287139689578713886,0.12874168514412417941,0.12389135254988914436,0.12347560975609755962,0.17199999999999998623,0.11599999999999999201,-0.02800000000000000058,0.05600000000000000117,0.14000000000000001332,0.25304878048780488076,0.17017738359201772802,-0.04143569844789356943,0.08245565410199556799,0.20593126385809312762,-0.46508088827721827396,-0.00399229807218591526,-0.09478082479326725707,0.02679860878657130963
22,22_2,124,75,,,,92.59259259259259522423,81.00000000000000000000,0.96692390703590969103,0.00000000000000000000,0.91122761868243773442,28.00000000000000000000,0.88876797558069042804,17.00000000000000000000,0.88130851842044788391,7.00000000000000000000,0.86654333938923000513,5.00000000000000000000,1.59090909090909082835,0.68181818181818176772,0.45454545454545436378,0.90909090909090928267,1.36363636363636397952,0.86206896551724132571,1.55172413793103447510,1.20689655172413745632,0.86206896551724165878,1.03448275862068994613,1.03448275862068883590,1.03448275862068994613,0.68965517241379326041,0.51724137931034497306,1.20689655172413812245,22.00000000000000000000,0.00000000000000000000,0.45454545454545453032,1.36363636363636309135,1.13636363636363668661,2.04545454545454585826,1.72413793103448265143,6.55172413793103469715,1.55172413793103403101,0.17241379310344831510,0.00000000000000000000,0.00000000000000000000,0.00000000000000000000,0.00000000000000000000,0.00000000000000000000,0.00000000000000000000,11.00000000000000000000,1.81818181818181812126,0.45454545454545453032,0.45454545454545436378,0.68181818181818198976,1.59090909090909127244,0.51724137931034486204,0.51724137931034486204,0.34482758620689640816,2.75862068965517304164,3.79310344827586298777,2.06896551724137767181,0.00000000000000000000,0.00000000000000000000,0.00000000000000000000,0.00000000000000000000,5.00000000000000000000,1.36363636363636353543,0.68181818181818176772,1.36363636363636309135,0.45454545454545464134,1.13636363636363668661,0.00000000000000000000,0.00000000000000000000,0.00000000000000000000,0.00000000000000000000,0.34482758620689663021,3.10344827586206584158,3.44827586206896663512,2.58620689655172464327,0.17241379310344831510,0.34482758620689663021,2.00000000000000000000,1.36363636363636353543,0.45454545454545453032,1.81818181818181745513,1.36363636363636397952,0.00000000000000000000,0.00000000000000000000,0.00000000000000000000,0.51724137931034464000,0.68965517241379326041,1.55172413793103469715,3.79310344827585854688,1.55172413793103469715,1.20689655172413812245,0.17241379310344831510,0.51724137931034497306,77.00000000000000000000,0.02483655038365824644,-0.03418132498348439019,-0.14226826167694281433,-0.22684400648763594632,-0.20031735288981741827,-0.10335359020631511295,-0.01103220413240940494,-0.02405364397928994383,0.02250151894000576580,0.07654977232922662023,0.14752125341594551911,0.18862634351531396004,0.22692189069077320362,0.24935564180336622364,0.27038035984746189300,0.30627085034811862840,0.34928668331942636094,0.39653693479817242462,0.45016604222177541983,0.50224375907818996634,0.55958152705160424389,0.60397809508457556138,0.66946104832905684034,0.71244085273290858051,0.77749377685080300893,0.25940501470642846060,0.64800000000000002043,0.17999999999999999334,0.46799999999999997158,0.07199999999999999456,0.07468892739498225741,0.23200000000000001177,-0.02822399450852952629,0.35599999999999998312,0.50906095385941407816,-0.01067679656008638234,0.17599999999999998979,0.29199999999999998179,1.83513856233757266523,0.27777777777777779011,0.72222222222222220989,0.11111111111111110494,0.35802469135802467148,0.54938271604938271331,0.27160493827160492319,0.45061728395061728669,0.11999999999999999556,0.18518518518518517491,0.31600000000000000311,0.48765432098765426616,0.43599999999999999867,0.67283950617283949658,2.63333333333333330373,0.09600000000000000200,0.14814814814814813992,0.19600000000000000755,0.30246913580246914677,0.29200000000000003730,0.45061728395061728669,2.04166666666666651864,0.06400000000000000133,0.09876543209876542662,0.08799999999999999489,0.13580246913580246160,0.15199999999999999623,0.23456790123456788821,1.37500000000000000000,0.86332677360534182398,9.04607473986495946860,15.31011132721988587946,8.63605779394785244563,9.90940151347029996032,23.94616912116774187780,0.08547746973003933491,0.91452253026996066509,0.63713658836851538858,0.36286341163148455591,0.29287622398404900004,0.70712377601595099996,0.17970893179335423184,0.56831207198010580406,0.01164333819867990200,-0.00787814862172175889,-0.00432838199236756926,-0.00532065817858756729,0.00481741918504802191,0.16824278863530420236,0.72740570181242714121,0.91570196576617901574,0.88952824136580099790,0.64003391017397226470,-0.67941256278811645863,-0.37683001267067067763,-0.46472922007856765081,0.42288393127253925963,4.33399006213396731368,5.47094472965166644940,5.31191867158278618888,3.82061951340701178026,0.03200000000000000067,0.06800000000000000488,0.08399999999999999134,0.01200000000000000025,0.07599999999999999811,0.04938271604938271331,0.10493827160493826578,0.12962962962962962243,0.01851851851851851749,0.11728395061728394411,0.14799999999999999267,0.07999999999999998779,0.00400000000000000008,0.01600000000000000033,0.09199999999999999845,0.22839506172839504905,0.12345679012345678327,0.00617283950617283916,0.02469135802469135665,0.14197530864197530076,-0.26073726131141733431,-0.00597159009338081755,0.16214666996112192532,0.00379662714444097384
22,22_3,124,75,,,,94.93670886075949510996,79.00000000000000000000,0.97237296289863250909,0.00000000000000000000,0.90494319690514257726,29.00000000000000000000,0.89556346939479225533,16.00000000000000000000,0.77004557322300548616,8.00000000000000000000,0.69060858846294526092,6.00000000000000000000,1.52173913043478270524,0.65217391304347827052,0.43478260869565199531,0.65217391304347838155,1.73913043478260909147,0.17543859649122806044,1.75438596491228060437,1.05263157894736814058,0.87719298245614063525,1.05263157894736858466,1.40350877192982337327,1.22807017543859675612,0.70175438596491235277,0.70175438596491235277,1.05263157894736858466,23.00000000000000000000,0.00000000000000000000,1.08695652173913037686,0.86956521739130399062,1.08695652173913082095,1.95652173913043503362,2.45614035087719306816,6.66666666666666696273,0.87719298245614008014,0.00000000000000000000,0.00000000000000000000,0.00000000000000000000,0.00000000000000000000,0.00000000000000000000,0.00000000000000000000,0.00000000000000000000,10.00000000000000000000,2.17391304347826075372,0.21739130434782608092,0.43478260869565199531,0.65217391304347838155,1.52173913043478292728,0.17543859649122806044,0.52631578947368418131,0.35087719298245600985,1.57894736842105287700,4.91228070175438702449,2.28070175438596312034,0.17543859649122808819,0.00000000000000000000,0.00000000000000000000,0.00000000000000000000,5.00000000000000000000,1.08695652173913037686,0.65217391304347827052,0.86956521739130399062,1.30434782608695676309,1.08695652173913082095,0.00000000000000000000,0.00000000000000000000,0.00000000000000000000,0.00000000000000000000,0.00000000000000000000,2.80701754385964674654,4.38596491228070295421,2.10526315789473716933,0.70175438596491235277,0.00000000000000000000,2.00000000000000000000,0.86956521739130432369,0.65217391304347827052,0.43478260869565199531,1.30434782608695676309,1.73913043478260909147,0.00000000000000000000,0.00000000000000000000,0.00000000000000000000,0.35087719298245617638,1.57894736842105287700,2.80701754385964674654,4.21052631578947433866,0.87719298245614063525,0.17543859649122808819,0.00000000000000000000,16.00000000000000000000,0.03312635425373840203,-0.02251015054403410903,-0.13873045263327346555,-0.23017138074195375719,-0.20364099816034075818,-0.10240398712662535097,-0.00986985111902971037,-0.02492672684791239282,0.01896668618224722075,0.06054474209285144737,0.12220763095914807805,0.15484761994316478817,0.18124343966050904253,0.20493948349509649720,0.23021319922575922412,0.25984492028613087600,0.28438295386271594811,0.33016502733399055725,0.39347260835469360929,0.46880688259124203565,0.55191285741079032512,0.61972633911956043207,0.69227700276612136321,0.73161103028979890261,0.79779267341167214855,0.31933100037506123581,0.64000000000000001332,0.17999999999999999334,0.46000000000000001998,0.07199999999999999456,0.07243586978860530601,0.23599999999999998757,-0.02445763825298713501,0.37600000000000000089,0.54083804153634984502,-0.01085565190869963725,0.19600000000000000755,0.26400000000000001243,1.72222128230251581016,0.28125000000000000000,0.71875000000000000000,0.11250000000000000278,0.36875000000000002220,0.58749999999999991118,0.30625000000000002220,0.41249999999999997780,0.12399999999999999911,0.19375000000000000555,0.36399999999999999023,0.56874999999999997780,0.48799999999999998934,0.76249999999999995559,2.93333333333333357018,0.09600000000000000200,0.14999999999999999445,0.24799999999999999822,0.38750000000000001110,0.34399999999999997247,0.53750000000000008882,2.58333333333333303727,0.06400000000000000133,0.10000000000000000555,0.09600000000000000200,0.14999999999999999445,0.16000000000000000333,0.25000000000000000000,1.50000000000000000000,0.63633083390371014687,8.53407051810908789946,16.19123112622734339539,8.58956754729983629204,9.17040135201279760224,24.78079867352717968743,0.07006345408940307939,0.92993654591059704551,0.65335714991952675845,0.34664285008047318604,0.27057521804717982183,0.72942478195282012265,0.06505380978122851654,0.56147416576590192250,0.01023134817147122733,-0.00789850427161231661,-0.00353941278939512438,-0.00461699314043967357,0.00325408440258073695,0.12145991586123575101,0.77634994055726058715,0.91679193576247763886,0.89666285950127866400,0.64953918964924017843,-0.78300213931686735158,-0.35284034024342370017,-0.46738285812864610591,0.32403969909518548498,6.75761816602750453598,8.09164375237559951870,7.92574835351386042248,5.74282397182409631853,0.02000000000000000042,0.08799999999999999489,0.07599999999999999811,0.01200000000000000025,0.09199999999999999845,0.03125000000000000000,0.13750000000000001110,0.11875000000000000833,0.01875000000000000278,0.14374999999999998890,0.16000000000000000333,0.07200000000000000844,0.00400000000000000008,0.01600000000000000033,0.10799999999999999878,0.25000000000000000000,0.11250000000000000278,0.00625000000000000035,0.02500000000000000139,0.16875000000000001110,-0.28681864003998319701,-0.00548391318271563774,0.03722105905520232960,0.00266629428019041909
22,22_1,124,75,,,,93.75000000000000000000,80.00000000000000000000,0.94399941294953926274,0.00000000000000000000,0.91128166615177330634,31.00000000000000000000,0.90096468361744808107,19.00000000000000000000,0.65179314102394891872,13.00000000000000000000,0.66175062937713469147,11.00000000000000000000,2.29166666666666651864,0.62500000000000000000,0.41666666666666651864,0.62500000000000011102,1.04166666666666696273,0.71428571428571430157,3.21428571428571441260,0.89285714285714257166,1.07142857142857161890,0.89285714285714312677,0.71428571428571363544,0.35714285714285720630,0.53571428571428580945,0.53571428571428580945,1.07142857142857161890,24.00000000000000000000,0.00000000000000000000,0.83333333333333337034,1.24999999999999955591,1.04166666666666696273,1.87500000000000022204,1.78571428571428580945,1.42857142857142860315,5.17857142857142616066,1.42857142857142882519,0.17857142857142860315,0.00000000000000000000,0.00000000000000000000,0.00000000000000000000,0.00000000000000000000,0.00000000000000000000,16.00000000000000000000,0.83333333333333337034,0.41666666666666668517,0.41666666666666651864,1.45833333333333370341,1.87500000000000022204,0.35714285714285715079,0.17857142857142857539,0.17857142857142851988,0.53571428571428580945,0.53571428571428580945,3.92857142857142482839,3.21428571428571485669,1.07142857142857161890,0.00000000000000000000,0.00000000000000000000,10.00000000000000000000,1.04166666666666674068,0.83333333333333337034,1.87499999999999933387,1.25000000000000022204,0.00000000000000000000,0.00000000000000000000,0.00000000000000000000,0.00000000000000000000,0.35714285714285720630,1.96428571428571485669,3.21428571428571130397,2.85714285714285765039,1.07142857142857161890,0.53571428571428580945,0.00000000000000000000,26.00000000000000000000,0.20833333333333334259,2.08333333333333348136,1.24999999999999955591,1.25000000000000022204,0.20833333333333337034,0.00000000000000000000,0.00000000000000000000,0.17857142857142851988,1.25000000000000022204,2.32142857142857206298,2.49999999999999777955,2.67857142857142926928,0.71428571428571441260,0.17857142857142860315,0.17857142857142860315,24.00000000000000000000,0.05186222333173791388,0.04195565694728083800,-0.00156512455422026797,-0.08438273290274861393,-0.12403689762875261260,-0.07907156398484650739,-0.00715641154762032550,-0.01214378753012915549,0.04502857081906679743,0.11148111230755328172,0.21612305248269297886,0.30818716183738870118,0.37401044412008732643,0.42978040127640504409,0.48208128855385634637,0.52259567414777585714,0.57016008184331212760,0.63351766573062384680,0.70097048987929477804,0.74521913571203757254,0.75067660452458662146,0.75283956876419111381,0.76769927962726236537,0.77037580935238003654,0.83922117631978543351,0.13125185589766649730,0.64000000000000001332,0.18800000000000000044,0.45200000000000001288,0.11999999999999999556,0.07023706031368129321,0.26800000000000001599,-0.03746551477498705207,0.37199999999999999734,0.34669378659717103863,-0.00839652539458005109,0.18399999999999999689,0.26800000000000001599,2.72503139834159879840,0.29371776840131269548,0.70628223159868730452,0.18737302703547428773,0.41858102828566962073,0.58079387404281912488,0.28707610564150648491,0.41920612595718076410,0.10000000000000000555,0.15650882950461009191,0.28000000000000002665,0.43866229098296605216,0.38000000000000000444,0.59517112048757614406,2.77272727272727248504,0.07200000000000000844,0.11267385528988904664,0.15200000000000002398,0.23784966401000154357,0.22400000000000000466,0.35052351929989056245,2.11249999999999982236,0.04399999999999999745,0.06883888107516800137,0.08000000000000000167,0.12501953430223472497,0.12399999999999999911,0.19385841537740272633,1.83333333333333348136,1.45053190224204819891,4.96466862741027270545,13.04154365021381423162,5.26744585677002419288,6.41520052965232157050,18.30898950698384197722,0.22596592407207055642,0.77403407592792938807,0.71220420370124903897,0.28779579629875085001,0.25940420200688962815,0.74059579799311037185,0.60195077853632472653,0.49503852738509379616,0.00889642274838363736,-0.01212663776059824672,0.00100994332596715530,-0.00680060048665853678,0.00481835141771844166,0.09858689293448136270,0.77247224497405597710,0.80981545120382669722,0.71315913829586530248,0.44102144697431416853,-1.39956665092685850205,-0.05988821857636245083,-0.98063136511293824693,0.68799667879198367348,7.98968256190414294338,8.24140839105393752106,7.22794141155279490363,4.35332829760760908755,0.04000000000000000083,0.10399999999999999523,0.06400000000000000133,0.03600000000000000422,0.07199999999999999456,0.06204094389748397720,0.16252539459290513135,0.10017190185966556859,0.05618065322706672360,0.11189248320050007579,0.14800000000000002043,0.04399999999999999745,0.02000000000000000042,0.05599999999999999423,0.12800000000000000266,0.23167682450382870440,0.06915142991092357305,0.03102047194874198860,0.08720112517580871914,0.19909360837630879493,-1.04704374602954142226,-0.00547556108099709476,-0.35904706723755774878,0.03928997943330685139
32,32_1,110,64,,,,76.53061224489795222325,98.00000000000000000000,0.96612396125434896188,0.00000000000000000000,0.88661563444838831227,31.00000000000000000000,0.80479403254550663238,14.00000000000000000000,0.81204596852603427859,10.00000000000000000000,0.66209095816687990599,8.00000000000000000000,1.66666666666666674068,0.71428571428571430157,0.47619047619047599751,0.47619047619047627506,1.66666666666666696273,3.22033898305084731462,1.69491525423728806032,1.86440677966101620022,0.67796610169491533515,0.33898305084745766758,0.33898305084745733451,0.33898305084745766758,0.33898305084745766758,0.33898305084745766758,0.84745762711864436323,21.00000000000000000000,0.00000000000000000000,0.47619047619047616404,1.42857142857142815906,1.19047619047619090971,1.90476190476190510026,1.35593220338983044826,0.84745762711864403016,0.84745762711864380812,6.94915254237288326777,0.00000000000000000000,0.00000000000000000000,0.00000000000000000000,0.00000000000000000000,0.00000000000000000000,0.00000000000000000000,10.00000000000000000000,2.14285714285714279370,0.23809523809523808202,0.47619047619047599751,0.95238095238095255013,1.19047619047619090971,0.16949152542372880603,0.84745762711864403016,0.50847457627118630707,2.37288135593220372854,4.06779661016949223296,1.01694915254237194802,1.01694915254237305824,0.00000000000000000000,0.00000000000000000000,0.00000000000000000000,7.00000000000000000000,0.95238095238095232808,0.23809523809523808202,0.47619047619047599751,1.66666666666666696273,1.66666666666666696273,0.00000000000000000000,0.00000000000000000000,0.00000000000000000000,0.00000000000000000000,0.00000000000000000000,1.01694915254237194802,4.91525423728813670721,2.71186440677966134061,0.84745762711864436323,0.50847457627118652912,33.00000000000000000000,0.47619047619047616404,0.71428571428571430157,1.19047619047619024357,1.66666666666666696273,0.95238095238095255013,0.00000000000000000000,0.16949152542372880603,0.16949152542372875052,0.33898305084745766758,1.86440677966101753249,3.22033898305084465008,3.22033898305084775870,1.01694915254237305824,0.00000000000000000000,0.00000000000000000000,14.00000000000000000000,0.01479979053650804822,-0.03081650030577028423,-0.13486063247801161058,-0.24646586776241127814,-0.22447098619121050311,-0.11551557487750163666,-0.00599341517116113321,0.01018439218565759391,0.10737918999124233810,0.24563965367721793398,0.42293956339277488654,0.53535387792775701588,0.61584360057353249029,0.65144536381496653821,0.68530603332947614970,0.69066801701036562022,0.71412135867921922028,0.73816742821895531268,0.77947971036980623349,0.81850409134122037447,0.86780453567018955852,0.87759554472028133976,0.90046974444362037904,0.91089068145975093937,0.94281192612887310123,0.12610820983745135715,0.77200000000000001954,0.19200000000000000400,0.57999999999999996003,0.07999999999999998779,0.07136547365834550183,0.28800000000000003375,-0.04586085651371296645,0.44400000000000000577,0.24466371509216700009,-0.00332762782619645814,0.25200000000000000178,0.32800000000000001377,4.06595574892766364883,0.24833440790887600924,0.75166559209112393525,0.10342789598108746707,0.37250161186331398611,0.57484418654631419532,0.32650977863743824159,0.42515581345368580468,0.14000000000000001332,0.18187191059531485071,0.25200000000000000178,0.32785299806576401194,0.39200000000000001510,0.50972490866107889040,1.79111842105263141534,0.10399999999999999523,0.13480550182677841775,0.12399999999999999911,0.16086395873629916187,0.22800000000000000822,0.29566946056307757962,1.19230769230769229061,0.07199999999999999456,0.09332688588007737041,0.08000000000000000167,0.10369653986675263224,0.15199999999999999623,0.19702342574682998877,1.11111111111111116045,1.64627048668581199564,10.33906270618012612772,17.60764172008718020379,4.59139394565546865579,11.98533319286593901154,22.19903566574264885958,0.13361945966829832932,0.86638054033170164292,0.79372734435525738039,0.20627265564474264736,0.35056244297130140231,0.64943755702869854218,0.70662558363149452489,0.48244750321133811344,0.01034034634904097694,-0.00830569520619856005,-0.00346470903179724177,-0.00535791305734661938,0.00569858324358291091,0.27095422201647684224,0.82341687633119575729,0.95819816518217404422,0.91032433241303301052,0.42898603241334498648,-0.80759324679284416604,-0.33734755331579480142,-0.51777366349508513466,0.54792340891401658531,3.14645693266224579787,3.71914877491459572312,3.52687484270492968008,1.66798992263294088012,0.04000000000000000083,0.07200000000000000844,0.07199999999999999456,0.03600000000000000422,0.10000000000000000555,0.05131098216204599272,0.09359552976574253558,0.09386417365140770075,0.04599183322587577921,0.12975499677627339024,0.15199999999999999623,0.07999999999999998779,-0.00800000000000000017,0.02800000000000000058,0.12800000000000000266,0.19702342574682998877,0.10342789598108746707,-0.00956372232967977846,0.03642811089619600595,0.16618310767246938231,-0.50039543889598092630,-0.00503809864329495330,0.04752797001803576310,0.00865546245070677144
32,32_3,110,64,,,,90.36144578313253816759,83.00000000000000000000,0.97327046982499398897,0.00000000000000000000,0.91671165281853617124,33.00000000000000000000,0.87540227391240499344,15.00000000000000000000,0.83659694862683497973,9.00000000000000000000,0.64421903782598488597,5.00000000000000000000,1.95652173913043481157,0.43478260869565216185,0.65217391304347804848,0.65217391304347838155,1.30434782608695676309,0.00000000000000000000,2.98245614035087713845,2.98245614035087625027,0.87719298245614063525,0.52631578947368429233,0.35087719298245584332,0.35087719298245617638,0.52631578947368429233,0.35087719298245617638,1.05263157894736858466,23.00000000000000000000,0.00000000000000000000,0.65217391304347827052,1.30434782608695609696,1.30434782608695676309,1.73913043478260909147,1.22807017543859653408,1.40350877192982448349,0.87719298245614008014,5.61403508771929882215,0.87719298245614063525,0.00000000000000000000,0.00000000000000000000,0.00000000000000000000,0.00000000000000000000,0.00000000000000000000,12.00000000000000000000,1.73913043478260864738,0.21739130434782608092,0.65217391304347804848,1.08695652173913082095,1.30434782608695676309,0.17543859649122806044,0.70175438596491224175,0.70175438596491201970,0.35087719298245617638,5.08771929824561475186,1.92982456140350699947,1.05263157894736858466,0.00000000000000000000,0.00000000000000000000,0.00000000000000000000,8.00000000000000000000,0.86956521739130432369,0.65217391304347827052,0.86956521739130399062,0.65217391304347838155,1.95652173913043503362,0.00000000000000000000,0.00000000000000000000,0.00000000000000000000,0.00000000000000000000,0.00000000000000000000,0.35087719298245584332,3.68421052631579026837,4.56140350877193068158,1.40350877192982470554,0.00000000000000000000,4.00000000000000000000,0.86956521739130432369,0.43478260869565216185,1.08695652173913015481,1.95652173913043503362,0.65217391304347838155,0.00000000000000000000,0.00000000000000000000,0.00000000000000000000,0.00000000000000000000,2.10526315789473716933,4.21052631578946989777,3.15789473684210575399,0.17543859649122808819,0.35087719298245617638,0.00000000000000000000,17.00000000000000000000,0.04615075672881741725,0.02899223568121643210,-0.06234675152072752247,-0.17746728048826315716,-0.18484014454929012516,-0.09698266808426392327,-0.00835939747998157637,-0.01395810687235464476,0.05809377029611736271,0.16053124119839656814,0.30267973689503147039,0.44019129279581387104,0.54226244993931871363,0.60552717865243366191,0.64291379554328809132,0.64668299051123201426,0.64898301185621676268,0.64189523449295404767,0.65944851891585631876,0.67453580144106983774,0.70034647909786995612,0.72255073000500058544,0.75629788305534828563,0.76704909003867016715,0.79296617163639959713,0.20728995777774575360,0.75200000000000000178,0.20000000000000001110,0.55200000000000004619,0.09600000000000000200,0.07997270390627225778,0.29599999999999998535,-0.04804037198711397227,0.42399999999999998801,0.26795070852151114948,0.00043755798824093861,0.22400000000000000466,0.32800000000000001377,3.72772161842499993867,0.27114341756086302038,0.72885658243913686860,0.13014884042921426310,0.40279220029998841213,0.57332410291911850564,0.30218068535825542975,0.42667589708088149436,0.11999999999999999556,0.16268605053651780112,0.30399999999999999245,0.42113764855197877157,0.42399999999999998801,0.58382369908849662821,2.53333333333333321491,0.09600000000000000200,0.13014884042921426310,0.12399999999999999911,0.16885889004269066804,0.22000000000000000111,0.29900773047190487564,1.29166666666666651864,0.06800000000000000488,0.09293873312564901457,0.07599999999999999811,0.10378446982808353649,0.14400000000000001688,0.19672320295373252330,1.11805555555555558023,1.32932764962789518037,9.68076715717049296472,16.51709585573832583805,6.88969825483028142088,11.01009480679838858919,23.40679411056860814710,0.12072695575781726418,0.87927304424218277745,0.70594905599055857159,0.29405094400944153943,0.32002849793704596371,0.67997150206295398078,0.77076010623159096902,0.44783763025690087600,0.01069835159586812745,-0.00786563845651561122,-0.00399356893593566520,-0.00618926250863988114,0.00589578604997328948,0.23472303919665210570,0.79899302520973747299,0.98041942110968693935,0.94048489616977470895,0.33026367276387313954,-0.74500046001385133998,-0.37672068154205984314,-0.59460109541351213736,0.55183545661675736937,3.64647887527008407460,4.56083698430636275134,4.38403573002935509351,1.52272343086158290504,0.05600000000000000117,0.06400000000000000133,0.08000000000000000167,0.02000000000000000042,0.13200000000000000622,0.07442021460713049708,0.08676589361947617540,0.10845736702434521925,0.02786431291104188301,0.18120456905503634637,0.14400000000000001688,0.07999999999999998779,0.00000000000000000000,0.02000000000000000042,0.15199999999999999623,0.19672320295373252330,0.10995730933425637565,-0.00149994230991115727,0.02636437060113072661,0.20756893965616707298,-0.32551413967503667335,-0.00626062826446243097,0.22632131694172069603,0.00531986016461575336
32,32_2,110,64,,,,85.22727272727271952135,88.00000000000000000000,0.97211022940368185807,0.00000000000000000000,0.91306241136097820998,32.00000000000000000000,0.84924513403424539693,15.00000000000000000000,0.81471115838683783039,8.00000000000000000000,0.68817314555564279566,5.00000000000000000000,1.66666666666666674068,0.71428571428571430157,0.47619047619047599751,0.71428571428571441260,1.42857142857142882519,0.00000000000000000000,2.88135593220338970255,3.05084745762711762040,0.84745762711864436323,0.50847457627118652912,0.50847457627118597401,0.33898305084745766758,0.33898305084745766758,0.50847457627118652912,1.01694915254237305824,21.00000000000000000000,0.00000000000000000000,0.47619047619047616404,1.42857142857142815906,0.95238095238095255013,2.14285714285714323779,1.35593220338983044826,1.01694915254237283619,1.01694915254237261415,5.93220338983050954340,0.67796610169491533515,0.00000000000000000000,0.00000000000000000000,0.00000000000000000000,0.00000000000000000000,0.00000000000000000000,10.00000000000000000000,1.90476190476190465617,0.23809523809523808202,0.71428571428571407953,0.71428571428571441260,1.42857142857142882519,0.50847457627118641810,0.50847457627118641810,0.50847457627118630707,0.67796610169491533515,5.25423728813559431927,2.03389830508474389603,0.50847457627118652912,0.00000000000000000000,0.00000000000000000000,0.00000000000000000000,6.00000000000000000000,1.19047619047619046562,0.71428571428571430157,0.47619047619047599751,1.19047619047619090971,1.42857142857142882519,0.00000000000000000000,0.00000000000000000000,0.00000000000000000000,0.00000000000000000000,0.84745762711864436323,4.74576271186440301619,2.88135593220339014664,1.01694915254237305824,0.50847457627118652912,0.00000000000000000000,3.00000000000000000000,0.71428571428571430157,0.47619047619047616404,1.19047619047619024357,1.66666666666666696273,0.95238095238095255013,0.00000000000000000000,0.00000000000000000000,0.00000000000000000000,0.16949152542372883379,2.20338983050847492251,4.23728813559321615401,2.71186440677966134061,0.67796610169491533515,0.00000000000000000000,0.00000000000000000000,17.00000000000000000000,0.01928757096813182512,-0.02659858992250862739,-0.13406319875145636389,-0.23345006190954070702,-0.21439016697230087183,-0.11134088570913033833,-0.01018816040902968678,-0.00426410464005690451,0.06665976710588072951,0.16982476426773679412,0.31825516371634321455,0.44580876179778866630,0.53949456048747834735,0.58589534495611284015,0.60711247899702147635,0.61590781864509069887,0.61030438211152238104,0.62498207500494262767,0.63658321548216090235,0.66435152649642659206,0.69190807869268300401,0.71230400956588679762,0.74264201751595293466,0.76030345507544083716,0.78429635988219170706,0.22201615994727313952,0.78400000000000003020,0.19600000000000000755,0.58799999999999996714,0.08399999999999999134,0.07562884508266107253,0.29999999999999998890,-0.04560614037907906315,0.45199999999999995737,0.28433834045602263130,-0.00078704560751050034,0.25600000000000000533,0.33199999999999996181,3.49850042289925466932,0.25599058622165166144,0.74400941377834828305,0.10922122379118527624,0.39398801882755674075,0.58461703038083012718,0.32862644415917841023,0.41538296961916987282,0.12399999999999999911,0.16163885323063756361,0.35999999999999998668,0.48373983739837400631,0.48399999999999998579,0.64537869062901154216,2.92083333333333339255,0.10000000000000000555,0.13018827556696618841,0.12399999999999999911,0.16335044929396663749,0.22400000000000000466,0.29353872486093279814,1.24358974358974361252,0.07199999999999999456,0.09435173299101412558,0.07599999999999999811,0.10044929396662387322,0.14799999999999999267,0.19480102695763801268,1.05555555555555558023,1.07382504814110135705,10.10914674903424881336,17.64832302145040898722,6.76867793175662857408,11.18297179717534994836,24.41700095320703667312,0.09583106265345411878,0.90416893734654590897,0.72562050735549754599,0.27437949264450245401,0.31465335176193315325,0.68534664823806690226,0.75741005208385392411,0.43813037144170124959,0.01190350429777484002,-0.00759276266792835441,-0.00188372577100243133,-0.00640221983489924762,0.00621090506557217537,0.14626967286263542478,0.78004173671169341198,0.91411809015119716015,0.86890162140839077853,0.39068361196406942160,-0.63598070050374833073,-0.15903752958874725620,-0.54477661863230308903,0.52266836668169125435,6.99266500547554592515,7.92888058032886711146,7.46560625115690257303,3.56937765751953683946,0.03600000000000000422,0.07599999999999999811,0.08799999999999999489,0.03200000000000000067,0.10000000000000000555,0.04460847240051347973,0.10216089002995293322,0.12216516902011125001,0.03851091142490371821,0.12676508344030806841,0.16000000000000000333,0.08399999999999999134,0.00400000000000000008,0.03600000000000000422,0.13600000000000000977,0.21138211382113819559,0.10922122379118527624,0.01294394522892597377,0.05145485665382969892,0.17821994009413777427,-0.45483491896438932311,-0.00550407177661303704,0.06783344771730194511,0.01961044330757569232
34,34_1,139,85,,,,78.94736842105263008307,95.00000000000000000000,0.97126167622184422790,79.00000000000000000000,0.88921810605016593509,31.00000000000000000000,0.81107485615080887609,15.00000000000000000000,0.77967214037104970448,10.00000000000000000000,0.76272428246275358887,7.00000000000000000000,1.50000000000000000000,0.75000000000000000000,0.49999999999999983347,0.75000000000000022204,1.50000000000000044409,1.50000000000000000000,2.00000000000000000000,1.33333333333333281523,1.50000000000000022204,0.83333333333333359239,0.49999999999999961142,0.33333333333333337034,0.50000000000000011102,0.33333333333333337034,1.16666666666666696273,20.00000000000000000000,0.00000000000000000000,0.75000000000000000000,1.24999999999999955591,1.25000000000000044409,1.75000000000000044409,1.66666666666666674068,0.83333333333333337034,5.99999999999999822364,1.50000000000000022204,0.00000000000000000000,0.00000000000000000000,0.00000000000000000000,0.00000000000000000000,0.00000000000000000000,0.00000000000000000000,10.00000000000000000000,1.75000000000000000000,0.50000000000000000000,0.49999999999999983347,1.00000000000000022204,1.25000000000000044409,0.00000000000000000000,0.50000000000000000000,0.99999999999999966693,3.50000000000000088818,3.50000000000000088818,1.33333333333333214910,0.16666666666666668517,0.00000000000000000000,0.00000000000000000000,0.00000000000000000000,6.00000000000000000000,1.25000000000000000000,0.75000000000000000000,0.49999999999999983347,1.25000000000000044409,1.25000000000000044409,0.00000000000000000000,0.00000000000000000000,0.00000000000000000000,0.00000000000000000000,1.00000000000000022204,5.66666666666666163366,1.50000000000000022204,1.83333333333333370341,0.00000000000000000000,0.00000000000000000000,2.00000000000000000000,0.75000000000000000000,0.50000000000000000000,0.99999999999999966693,1.50000000000000044409,1.25000000000000044409,0.00000000000000000000,0.00000000000000000000,0.00000000000000000000,0.16666666666666668517,1.16666666666666696273,4.99999999999999555911,2.83333333333333392545,0.16666666666666668517,0.66666666666666674068,0.00000000000000000000,78.00000000000000000000,0.00524019827836101886,-0.03261802810589228135,-0.13120988326089982889,-0.22409316520943645124,-0.21444237434323942804,-0.12016105479559505143,-0.01108358409417223994,-0.01732575069812204369,0.03061007620176946220,0.13013771412924601822,0.25109632516556490422,0.35137409306442723977,0.41781346386635165313,0.45843645618680683995,0.49597031210765374354,0.52882071327955970652,0.56359998228786523100,0.60925914700411931690,0.65191965627990744458,0.69305135318880772832,0.72911034291920695516,0.75791494166738493377,0.79011103587682551819,0.82558709200006652473,0.86023428658852862938,0.19284615823491013664,0.83200000000000007283,0.24399999999999999467,0.58799999999999996714,0.13200000000000000622,0.06935430543904763656,0.34799999999999997602,-0.03435691843201704732,0.51200000000000001066,0.35622629920870385600,-0.00730542230078029542,0.26800000000000001599,0.32000000000000000666,2.78919033043597819344,0.28972787220209900161,0.71027212779790094288,0.15449986068542770346,0.41529674003900807211,0.61363425280951056084,0.32390638060741150372,0.38636574719048943916,0.13600000000000000977,0.16420544255595800887,0.36399999999999999023,0.43721556608154543699,0.50000000000000000000,0.60142100863750347362,2.67647058823529437888,0.10399999999999999523,0.12556886783690907050,0.16799999999999998268,0.20219188260425374759,0.27200000000000001954,0.32776075044116281809,1.61538461538461541878,0.07199999999999999456,0.08693229311786013214,0.09600000000000000200,0.11590972415714684285,0.16800000000000001044,0.20284201727500697499,1.33333333333333325932,1.32214861668480976320,9.79207513701674692186,19.77978134638219387398,6.12338208728690247540,11.11422375370155712915,25.90316343366909990209,0.11574205300127513030,0.88425794699872484195,0.76293387214472496716,0.23706612785527503284,0.29962790791942051083,0.70037209208057948917,0.62499007446192567095,0.49161110261187823678,0.01069295118794003074,-0.00699332094207016919,-0.00252825425484953792,-0.00390440168632921747,0.00332554336498744330,0.24563208720517887285,0.82557917366528776881,0.96446947158784812615,0.89984227890676515837,0.54334777609690398936,-0.65427859281954581228,-0.23615392959308045828,-0.36513365850704787574,0.31117064557342832831,3.44030960666512708457,4.01958251104849395574,3.71771866876340251196,2.29812344786129285623,0.08799999999999999489,0.07599999999999999811,0.09199999999999999845,0.02800000000000000058,0.09600000000000000200,0.10169963778211200955,0.09143679762236463227,0.11140521965264232884,0.03218166620228476299,0.11851026284015975243,0.15599999999999999978,0.08000000000000000167,0.01200000000000000025,0.04000000000000000083,0.13600000000000000977,0.18802823441998700593,0.09659143679762235979,0.01481378285501996905,0.04699544905730472510,0.16550571189746449141,-0.36416165029284575105,-0.00467854143563093544,-0.05299100471941745050,0.01584606236504071050
34,34_3,139,85,,,,82.41758241758242320429,91.00000000000000000000,0.97375273949256280215,79.00000000000000000000,0.90120076026064688257,31.00000000000000000000,0.86527097558465593252,15.00000000000000000000,0.88169636064634637762,8.00000000000000000000,0.74428572953288041347,7.00000000000000000000,1.95652173913043481157,0.65217391304347827052,0.43478260869565199531,0.65217391304347838155,1.30434782608695676309,1.57894736842105265495,1.92982456140350877583,1.22807017543859608999,1.40350877192982470554,0.87719298245614063525,0.52631578947368373722,0.52631578947368429233,0.35087719298245617638,0.52631578947368429233,1.05263157894736858466,23.00000000000000000000,0.00000000000000000000,0.86956521739130432369,1.30434782608695609696,1.30434782608695676309,1.52173913043478292728,1.40350877192982448349,1.05263157894736836262,3.68421052631578849201,3.85964912280701843983,0.00000000000000000000,0.00000000000000000000,0.00000000000000000000,0.00000000000000000000,0.00000000000000000000,0.00000000000000000000,13.00000000000000000000,1.52173913043478270524,0.43478260869565216185,0.65217391304347804848,1.52173913043478292728,0.86956521739130454574,0.00000000000000000000,0.35087719298245612087,1.05263157894736814058,1.92982456140350921991,4.73684210526315929712,0.87719298245613963605,1.05263157894736858466,0.00000000000000000000,0.00000000000000000000,0.00000000000000000000,8.00000000000000000000,0.43478260869565216185,1.08695652173913037686,0.65217391304347804848,2.39130434782608736199,0.43478260869565227287,0.00000000000000000000,0.00000000000000000000,0.00000000000000000000,0.00000000000000000000,0.52631578947368429233,4.03508771929824217040,2.63157894736842168371,1.92982456140350921991,0.87719298245614063525,0.00000000000000000000,6.00000000000000000000,0.21739130434782608092,1.08695652173913037686,1.30434782608695609696,1.52173913043478292728,0.86956521739130454574,0.00000000000000000000,0.00000000000000000000,0.17543859649122800493,0.00000000000000000000,1.40350877192982470554,2.10526315789473494888,3.15789473684210575399,2.45614035087719351225,0.70175438596491235277,0.00000000000000000000,75.00000000000000000000,0.04321033867531579725,0.03515150679461889055,-0.02901603653956019019,-0.14146172122869854482,-0.16637189020262532768,-0.09047650465704459855,-0.00761052872810396956,-0.01609012739061880734,0.04412650565191376939,0.13880626677393545498,0.26341118512200789592,0.36066057841887960711,0.42202237266262976334,0.45270115182805881204,0.48520414047004883917,0.51547628250101018565,0.56761836668347820378,0.61404849020177509900,0.66328905732310561305,0.70906783704419318326,0.75027568596659732769,0.78275884757019431603,0.81113612233062237777,0.82898763705165112725,0.89838840606415226731,0.17131662632794675272,0.81600000000000005862,0.26800000000000001599,0.54800000000000004263,0.15599999999999999978,0.07160800372264450320,0.35999999999999998668,-0.03912010845665753189,0.47999999999999998224,0.40028434277904967331,-0.00872869254044672527,0.21199999999999999400,0.33600000000000002087,2.47058619096352094502,0.32272595175820983915,0.67727404824179016085,0.18526591107236267675,0.43679163034001744492,0.58500435919790749750,0.26227840743969776938,0.41499564080209239147,0.13600000000000000977,0.16797442603894216506,0.31600000000000000311,0.38898575995350193057,0.45200000000000001288,0.55696018599244401237,2.32352941176470562112,0.10799999999999999878,0.13295553618134262064,0.14799999999999999267,0.18323161871548970803,0.25600000000000000533,0.31618715489683235642,1.37362637362637363125,0.07599999999999999811,0.09343214181923858996,0.08799999999999999489,0.10868933449578610517,0.16400000000000000688,0.20212147631502469514,1.16111111111111120486,2.05510837405200952333,10.56251119695344442562,17.57620179137879290465,8.17396242440265119455,12.61761957100545394894,25.75016421578144587556,0.16343932834543012378,0.83656067165456993173,0.68454565844867110158,0.31545434155132889842,0.32857924286851070139,0.67142075713148940963,0.60291292152292630391,0.49665792404610398236,0.00969049539165877521,-0.00624508076937313472,-0.00195182156808393348,-0.00459600316448738333,0.00425835285735184921,0.18378494818117979692,0.77306252234923555910,0.95015237794289653106,0.90603459682622788929,0.48033086347351178214,-0.64479557492008410247,-0.20146681356522305739,-0.47427675719788292552,0.43940538800218303939,4.32331381665755376531,5.35057620055553329053,5.10892811152109072026,2.66890102183895550070,0.10000000000000000555,0.07599999999999999811,0.09600000000000000200,0.02800000000000000058,0.11200000000000000233,0.11609997093868063001,0.09343214181923858996,0.12118570183086312120,0.03327521069456552960,0.13571636152281313370,0.16799999999999998268,0.09199999999999999845,0.00400000000000000008,0.03200000000000000067,0.14400000000000001688,0.20662598081952920914,0.11319383900029061918,0.00799186283057250896,0.04126707352513803856,0.17698343504795116532,-0.40845739215916110343,-0.00504485374600751203,0.03094799584302194290,0.01366012318185596749
34,34_2,139,85,,,,76.53061224489795222325,98.00000000000000000000,0.97674950645194014154,0.00000000000000000000,0.87484984765019224717,31.00000000000000000000,0.83876986701782674238,15.00000000000000000000,0.81486968701696460560,9.00000000000000000000,0.74394504154620899605,4.00000000000000000000,1.36363636363636353543,0.68181818181818176772,0.45454545454545436378,0.68181818181818198976,1.81818181818181856535,1.89655172413793104980,1.72413793103448265143,1.37931034482758563264,1.20689655172413812245,0.86206896551724165878,0.51724137931034441795,0.34482758620689663021,0.51724137931034497306,0.34482758620689663021,1.20689655172413812245,22.00000000000000000000,0.00000000000000000000,0.68181818181818176772,1.36363636363636309135,1.13636363636363668661,1.81818181818181856535,1.55172413793103447510,1.03448275862068972408,6.20689655172413612405,1.20689655172413812245,0.00000000000000000000,0.00000000000000000000,0.00000000000000000000,0.00000000000000000000,0.00000000000000000000,0.00000000000000000000,9.00000000000000000000,2.27272727272727292913,0.45454545454545453032,0.22727272727272718189,0.68181818181818198976,1.36363636363636397952,0.00000000000000000000,0.00000000000000000000,1.72413793103448220734,2.06896551724137989225,4.48275862068965658125,1.20689655172413701223,0.51724137931034497306,0.00000000000000000000,0.00000000000000000000,0.00000000000000000000,4.00000000000000000000,0.90909090909090906063,0.90909090909090906063,0.45454545454545436378,1.59090909090909127244,1.13636363636363668661,0.00000000000000000000,0.00000000000000000000,0.00000000000000000000,0.00000000000000000000,0.51724137931034497306,1.20689655172413701223,5.68965517241379448166,1.89655172413793149389,0.68965517241379326041,0.00000000000000000000,1.00000000000000000000,1.13636363636363646457,0.68181818181818176772,1.13636363636363602048,1.81818181818181856535,0.22727272727272732067,0.00000000000000000000,0.00000000000000000000,0.00000000000000000000,0.17241379310344831510,1.37931034482758652082,2.93103448275861833139,3.79310344827586298777,1.20689655172413812245,0.51724137931034497306,0.00000000000000000000,73.00000000000000000000,0.01517557173855269351,-0.06152763662746491696,-0.18757650239946327408,-0.27066000213760416093,-0.22815319338382514247,-0.11366519217667450659,-0.01209525830437979677,-0.03392396556800313101,0.00436587191156181942,0.08304928255355961686,0.20999654284715030261,0.31702021551515746633,0.40191867977728368277,0.45131113539096995302,0.47776071495513205978,0.51933877720369159281,0.56597982027854665255,0.61343578713017998805,0.65936936192025963344,0.71176641849011113017,0.76133806022264816082,0.79944037742087015186,0.83701762551385683331,0.84935073969116325898,0.90234882561709450766,0.14632873436793567001,0.73999999999999999112,0.20000000000000001110,0.54000000000000003553,0.07599999999999999811,0.07552063317026511124,0.29599999999999998535,-0.03943081329467579277,0.41200000000000003286,0.39342604037461614830,-0.00873219411994394235,0.21200000000000002176,0.32799999999999995826,2.52284975326116533978,0.27143861293345827868,0.72856138706654172132,0.10320993439550141257,0.40094892221180877812,0.55728678537956888306,0.28584817244611060438,0.44271321462043111694,0.13600000000000000977,0.18474695407685098880,0.31199999999999999956,0.42104029990627933611,0.44800000000000000933,0.60578725398313026940,2.31250000000000000000,0.11199999999999998845,0.15223758200562323428,0.15599999999999999978,0.20999297094657920493,0.26800000000000001599,0.36223055295220241145,1.41282051282051268615,0.07999999999999998779,0.10889175257731958935,0.09600000000000000200,0.12951030927835049944,0.17599999999999998979,0.23840206185567008879,1.22222222222222232091,0.84703368743641171967,11.24188492121979088267,18.03491922659395285677,7.25508281438895963333,12.08891860865620415666,25.29000204098291249011,0.06977263350638211736,0.93022736649361781325,0.71286326673001343401,0.28713673326998656599,0.32589788073230108179,0.67410211926769902924,0.46471229792134549630,0.55826229284527384422,0.01040053734212055200,-0.00687067110398070779,-0.00210701771107740798,-0.00516882341284408131,0.00490454856157965247,0.09171012347475748783,0.69353487021791648814,0.97568188471421102292,0.92570212940895157949,0.51174428886682032935,-0.66289182003405122678,-0.20272095944708201642,-0.49798957153826672872,0.47342236220435451877,7.88731203409147330063,11.66020386400207087263,11.00299431355936441435,6.32982594323054037488,0.02000000000000000042,0.07599999999999999811,0.11199999999999998845,0.02800000000000000058,0.10000000000000000555,0.02735473289597000618,0.10373711340206184794,0.15118322399250233579,0.03713683223992501892,0.13624648547328960246,0.17999999999999999334,0.10400000000000000910,0.00800000000000000017,0.03600000000000000422,0.13600000000000000977,0.24408388003748826556,0.14034676663542641761,0.01083645735707591470,0.04797328959700093709,0.18421977507029052568,-0.43560365125305705591,-0.00447321423795657511,0.03781871095129748367,0.00647598219983107522
38,38_2,150,96,,,,87.71929824561404132055,85.50000000000000000000,0.96034526606853209962,79.00000000000000000000,0.90152723945234281011,31.00000000000000000000,0.82896242330242253527,18.00000000000000000000,0.76226918677210298014,12.00000000000000000000,0.65759323392787683016,7.00000000000000000000,0.68181818181818176772,1.36363636363636353543,0.90909090909090872756,0.90909090909090928267,1.13636363636363668661,2.24137931034482740245,1.03448275862068972408,0.68965517241379281632,1.03448275862068994613,2.41379310344827624490,0.51724137931034441795,0.34482758620689663021,0.51724137931034497306,0.34482758620689663021,0.86206896551724165878,22.00000000000000000000,0.00000000000000000000,0.00000000000000000000,1.36363636363636309135,2.50000000000000044409,1.13636363636363668661,0.00000000000000000000,2.58620689655172419918,4.13793103448275711997,1.72413793103448331756,1.55172413793103469715,0.00000000000000000000,0.00000000000000000000,0.00000000000000000000,0.00000000000000000000,0.00000000000000000000,14.00000000000000000000,0.68181818181818176772,0.90909090909090906063,0.90909090909090872756,2.50000000000000044409,0.00000000000000000000,0.00000000000000000000,0.68965517241379314939,0.34482758620689640816,1.20689655172413812245,3.10344827586206939429,2.58620689655172153465,1.72413793103448331756,0.34482758620689663021,0.00000000000000000000,0.00000000000000000000,4.00000000000000000000,0.00000000000000000000,2.50000000000000000000,2.49999999999999911182,0.00000000000000000000,0.00000000000000000000,0.00000000000000000000,0.00000000000000000000,0.00000000000000000000,0.86206896551724165878,1.55172413793103469715,3.62068965517241014851,3.10344827586206939429,0.51724137931034497306,0.17241379310344831510,0.17241379310344831510,79.00000000000000000000,0.90909090909090906063,3.18181818181818165669,0.90909090909090872756,0.00000000000000000000,0.00000000000000000000,0.00000000000000000000,0.34482758620689657469,1.72413793103448220734,1.89655172413793149389,2.93103448275862099592,1.72413793103448131916,0.68965517241379326041,0.17241379310344831510,0.51724137931034497306,0.00000000000000000000,78.00000000000000000000,0.02530641455921304669,0.02764998190822921115,-0.01464540740577963129,-0.08520803455678370442,-0.13479673541072728638,-0.11251033682600447561,-0.01893655066167287959,-0.02397752294159462283,0.03349817850875633912,0.13817482016340562612,0.26896932363613801353,0.37647294531540365092,0.41849052407713543955,0.42451017137971858162,0.39680895665787918603,0.37894730927419706390,0.41604792318145944474,0.47567408459123561304,0.54661491758829328091,0.64160133769260518921,0.72209575720017449285,0.79041833191502797185,0.84278811598883618394,0.88708661704711311291,0.93409987219597334640,0.23985242583510948955,0.72399999999999997691,0.22399999999999997691,0.50000000000000000000,0.14000000000000001332,0.05221232588000596087,0.30799999999999999600,-0.03226581252558541335,0.44400000000000000577,0.41640032636267809707,0.00328348883796128477,0.22000000000000000111,0.28000000000000002665,1.97363559226015716774,0.30984367366878357020,0.69015632633121637429,0.19388128969223253351,0.42562286272594040959,0.61370297997068878892,0.30385930630190527424,0.38629702002931121108,0.22399999999999997691,0.30984367366878357020,0.42000000000000003997,0.58127747923790917817,0.64399999999999990585,0.89112115290669269285,1.87051282051282052876,0.09600000000000000200,0.13281631656082071302,0.21200000000000002176,0.29408891060087932745,0.30799999999999999600,0.42690522716170009598,2.17832167832167833410,0.06400000000000000133,0.08842208109428431606,0.08799999999999999489,0.12158036150464093805,0.15199999999999999623,0.21000244259892525411,1.37500000000000000000,2.52659283903247278147,5.55713740226792651811,12.31046830722882745590,5.28044818589394004960,8.08373024130039929958,17.59091649312276572914,0.30031841403052306205,0.69968158596947693795,0.71495853509911433399,0.28504146490088572152,0.31655807498241450570,0.68344192501758538327,0.54504254118878026070,0.45024298141474033974,0.00175631262605026317,-0.00907927077587250553,-0.00126477840891447979,-0.00416943794514584853,0.00482170382011951060,0.25602800849359941271,0.76520979483283757538,0.76704446331130426984,0.69349666858763892030,0.45369858095102988393,-5.44018539843634307829,-0.73469135371893634634,-2.42478393752316012666,2.95755721151240003053,3.00597957860553766096,3.00889501448562146635,2.71710644282533220206,1.78441802981906816328,0.00000000000000000000,0.17199999999999998623,0.07599999999999999811,0.02800000000000000058,0.08000000000000000167,0.00000000000000000000,0.23790913531998048036,0.10509281875915973958,0.03859306301905227055,0.11107718612603810493,0.22399999999999997691,0.05200000000000000455,0.02400000000000000050,0.05200000000000000455,0.13200000000000000622,0.30984367366878357020,0.07193453834880311759,0.03315828041035662199,0.07175134342940889254,0.18282852955544698359,-5.23826731870664730195,-0.00414301439918424511,-2.28071010719424727142,0.04512522157788527444
38,38_3,150,96,,,,88.23529411764707219845,85.00000000000000000000,0.95664967832154079730,76.00000000000000000000,0.90129565936930455816,30.00000000000000000000,0.86578200943453964555,18.00000000000000000000,0.81649879543886416666,13.00000000000000000000,0.65477909102034159705,7.00000000000000000000,2.08333333333333348136,0.83333333333333337034,0.41666666666666651864,0.62500000000000011102,1.04166666666666696273,2.32142857142857161890,0.89285714285714290472,0.89285714285714257166,2.67857142857142926928,0.71428571428571441260,0.35714285714285681772,0.35714285714285720630,0.35714285714285720630,0.53571428571428580945,0.89285714285714312677,24.00000000000000000000,0.00000000000000000000,0.62500000000000000000,1.45833333333333281523,1.45833333333333370341,1.45833333333333370341,1.60714285714285720630,0.89285714285714290472,4.10714285714285587403,3.21428571428571485669,0.17857142857142860315,0.00000000000000000000,0.00000000000000000000,0.00000000000000000000,0.00000000000000000000,0.00000000000000000000,16.00000000000000000000,0.83333333333333337034,0.41666666666666668517,0.62499999999999977796,3.12500000000000044409,0.00000000000000000000,0.17857142857142857539,0.35714285714285715079,0.53571428571428547638,0.53571428571428580945,2.32142857142857206298,4.10714285714285320950,0.71428571428571441260,1.25000000000000022204,0.00000000000000000000,0.00000000000000000000,6.00000000000000000000,0.00000000000000000000,1.66666666666666674068,1.66666666666666607455,1.66666666666666696273,0.00000000000000000000,0.00000000000000000000,0.00000000000000000000,0.00000000000000000000,0.00000000000000000000,1.60714285714285742834,3.21428571428571130397,1.96428571428571485669,2.14285714285714323779,1.07142857142857161890,0.00000000000000000000,38.00000000000000000000,0.00000000000000000000,1.04166666666666674068,2.49999999999999911182,1.04166666666666696273,0.41666666666666674068,0.00000000000000000000,0.00000000000000000000,0.35714285714285703977,0.35714285714285720630,2.67857142857142926928,3.57142857142856851027,1.96428571428571485669,1.07142857142857161890,0.00000000000000000000,0.00000000000000000000,21.00000000000000000000,0.04920872236214412360,0.03884045801761804029,-0.01042569050473714926,-0.08686715680335901912,-0.12641732142943634676,-0.08404444577885286649,-0.00558394285701474102,-0.00264207751526080977,0.07493251416058437087,0.16837534756905819799,0.29999617526523902900,0.41340504188161608656,0.48349101605523903125,0.50025993560564618878,0.50861267323739423052,0.49557430995401030582,0.49766303186495336464,0.53619855400387272937,0.58793922586761238058,0.66443434019396707679,0.75792883015444889594,0.82929354609526173547,0.88205769585200433092,0.92289020131159804627,0.98580123970968513980,0.16639602404391648505,0.67599999999999993427,0.20400000000000001465,0.47199999999999997513,0.12399999999999999911,0.08742884051255331301,0.29599999999999998535,-0.04618260432293630480,0.40400000000000002576,0.34914449187498725058,0.00013352488472709312,0.20000000000000001110,0.27200000000000001954,2.81301513412314285745,0.29844463470319637644,0.70155536529680362356,0.17622716894977169533,0.43464611872146119431,0.59988584474885842113,0.30144121004566210020,0.40011415525114157887,0.09600000000000000200,0.14469178082191780366,0.29999999999999998890,0.45134132420091321869,0.39600000000000001865,0.59603310502283113337,3.12500000000000000000,0.07199999999999999456,0.10851883561643835274,0.11999999999999999556,0.17922374429223741910,0.19200000000000000400,0.28774257990867579959,1.66666666666666651864,0.04800000000000000100,0.07234589041095890183,0.07599999999999999811,0.11372716894977169533,0.12399999999999999911,0.18607305936073059716,1.58333333333333348136,1.29130155646071687059,6.81845393762962093120,15.41158891149868992443,5.89094852708649341366,8.10975549409033824588,21.30253743858518333809,0.15659304851802738345,0.84340695148197264430,0.72453129886122036307,0.27546870113877958142,0.27624182667995844653,0.72375817332004155347,0.61511601886666444905,0.47004707607689016902,0.00882547776863816524,-0.01316548669520484216,-0.00725226111204835266,-0.00801152021167200745,0.00910148802732144158,0.08725848401275954069,0.91497370374137765303,0.96303229491963682207,0.94738664303510111697,0.43778682339706387339,-1.72204214448675108073,-0.90374885427361428825,-0.99170115023845850644,1.08139416319689996016,23.49198201910779459922,25.30921950252010077520,24.91460296210268410277,12.74154609379734814922,0.01600000000000000033,0.14800000000000002043,0.04000000000000000083,0.00800000000000000017,0.11199999999999998845,0.02739726027397260122,0.21240011415525114624,0.05864726027397260122,0.01205764840182648248,0.17044805936073059716,0.18800000000000000044,0.04000000000000000083,0.00000000000000000000,0.00800000000000000017,0.11999999999999999556,0.27104737442922377522,0.05864726027397260122,0.00000000000000000000,0.01205764840182648248,0.18250570776255709005,-0.90798630317157824621,-0.00933017976952308335,0.17340786002532174170,0.00066481213785948400
38,38_1,150,96,,,,85.71428571428572240620,87.50000000000000000000,0.95322581343426837641,73.00000000000000000000,0.87789478149623023651,30.00000000000000000000,0.83804596667698094681,17.00000000000000000000,0.78928802142937160014,13.00000000000000000000,0.67309064732156764777,10.00000000000000000000,1.75000000000000000000,0.75000000000000000000,0.49999999999999983347,0.50000000000000011102,1.50000000000000044409,2.50000000000000000000,1.00000000000000000000,1.16666666666666629659,1.83333333333333370341,0.83333333333333359239,0.49999999999999961142,0.33333333333333337034,0.50000000000000011102,0.33333333333333337034,1.00000000000000022204,20.00000000000000000000,0.00000000000000000000,0.50000000000000000000,1.24999999999999955591,1.50000000000000044409,1.75000000000000044409,1.50000000000000000000,0.83333333333333337034,5.49999999999999822364,2.16666666666666696273,0.00000000000000000000,0.00000000000000000000,0.00000000000000000000,0.00000000000000000000,0.00000000000000000000,0.00000000000000000000,11.00000000000000000000,1.50000000000000000000,0.25000000000000000000,0.49999999999999983347,1.00000000000000022204,1.75000000000000044409,0.16666666666666665741,0.33333333333333331483,0.66666666666666640761,0.16666666666666668517,3.00000000000000044409,3.99999999999999689138,1.66666666666666718477,0.00000000000000000000,0.00000000000000000000,0.00000000000000000000,7.00000000000000000000,1.25000000000000000000,0.50000000000000000000,0.99999999999999966693,0.50000000000000011102,1.75000000000000044409,0.00000000000000000000,0.00000000000000000000,0.00000000000000000000,0.00000000000000000000,0.50000000000000011102,1.33333333333333214910,4.33333333333333392545,2.33333333333333392545,1.33333333333333348136,0.16666666666666668517,28.00000000000000000000,1.00000000000000000000,0.50000000000000000000,1.49999999999999955591,1.50000000000000044409,0.50000000000000011102,0.00000000000000000000,0.00000000000000000000,0.00000000000000000000,1.50000000000000022204,2.00000000000000044409,2.99999999999999733546,2.16666666666666696273,1.00000000000000022204,0.33333333333333337034,0.00000000000000000000,15.00000000000000000000,0.00553435933639825038,-0.01825932764129736471,-0.09716692633902063170,-0.18799780846003716350,-0.20853849351143574631,-0.12949542853903839301,-0.01509814760791915525,-0.01824922754664518032,0.03496987103270522701,0.14027844092633523498,0.26962445321484052041,0.37623520647062702604,0.44441605416578677801,0.47111394920142524168,0.46130910289246596090,0.47053584042938711995,0.51541068450653926281,0.57073562500362862160,0.61916692675343432128,0.70219575052510241342,0.78028622906280664662,0.83728779440670308976,0.89722589953418063757,0.93643784854414247043,0.95870791058859072820,0.15204726941065105361,0.65199999999999991296,0.15599999999999999978,0.49599999999999999645,0.07599999999999999811,0.07303527154031527746,0.23999999999999999112,-0.04048744872482865076,0.35199999999999997957,0.30827694479829292895,-0.00041748069937633248,0.19600000000000000755,0.30000000000000004441,2.67155480102155884481,0.24077434966727162546,0.75922565033272837454,0.11751361161524501164,0.37144585601935875552,0.54151542649727768541,0.30074107683000605995,0.45848457350272231459,0.10000000000000000555,0.15366001209921353876,0.30000000000000004441,0.45848457350272231459,0.40000000000000002220,0.61214458560193585335,2.99038461538461541878,0.07199999999999999456,0.11093466424682395244,0.12800000000000000266,0.19638535995160316672,0.20000000000000001110,0.30732002419842707752,1.77777777777777767909,0.04800000000000000100,0.07395644283121596829,0.07599999999999999811,0.11668179068360556849,0.12399999999999999911,0.19063823351482153678,1.58333333333333348136,1.05300294062316046606,5.83937520329418457976,13.08167719664517392175,5.26200574892582295661,6.89237814391734460173,18.34368294557099687836,0.15047005509317257221,0.84952994490682742779,0.71648994306103808150,0.28351005693896191850,0.27423878141870783320,0.72576121858129216680,0.55507399672905632926,0.48951138352096806861,0.00976047989581790669,-0.01210038520108758231,-0.00307827324478565645,-0.00777395493115312641,0.00671883378192419944,0.11479332909400818963,0.76281972674376374854,0.77822455144718061248,0.72038085995236489367,0.40199637557438183677,-1.37205306332163945449,-0.41059187218983023149,-0.87551716332776852170,0.78684205778318139224,41.37947478869570261395,42.89476066496811768047,41.05657783896396750833,21.83966414693638924405,0.01600000000000000033,0.09600000000000000200,0.05999999999999999778,0.02000000000000000042,0.07999999999999998779,0.02298850574712643646,0.15040834845735026604,0.09036600120992135943,0.03039927404718693188,0.12409255898366605697,0.14000000000000001332,0.04399999999999999745,0.01600000000000000033,0.03600000000000000422,0.11599999999999999201,0.21778584392014518900,0.06737749546279492296,0.02298850574712643646,0.05338777979431336834,0.17748033877797941837,-0.87278608558722226007,-0.00645573430857799332,-0.08594402780404085396,0.02090852323581995562
53,53_1,107,63,,,,88.23529411764707219845,85.00000000000000000000,0.97220318731257526768,77.00000000000000000000,0.91382502022597034141,33.00000000000000000000,0.87964323099800345584,18.00000000000000000000,0.92260594746110091702,9.00000000000000000000,0.75450493067616342113,5.00000000000000000000,1.81818181818181812126,0.45454545454545453032,0.68181818181818154567,0.68181818181818198976,1.36363636363636397952,1.37931034482758629878,1.20689655172413790041,2.06896551724137855999,1.72413793103448331756,0.51724137931034497306,0.34482758620689624163,0.34482758620689663021,0.51724137931034497306,0.51724137931034497306,1.37931034482758652082,22.00000000000000000000,0.00000000000000000000,0.45454545454545453032,1.13636363636363602048,1.13636363636363668661,2.27272727272727337322,2.06896551724137944817,1.20689655172413790041,3.96551724137930872160,2.58620689655172464327,0.17241379310344831510,0.00000000000000000000,0.00000000000000000000,0.00000000000000000000,0.00000000000000000000,0.00000000000000000000,11.00000000000000000000,1.59090909090909082835,0.45454545454545453032,0.45454545454545436378,0.90909090909090928267,1.59090909090909127244,0.51724137931034486204,0.51724137931034486204,0.68965517241379281632,1.37931034482758652082,3.62068965517241458940,1.37931034482758496651,1.72413793103448331756,0.17241379310344831510,0.00000000000000000000,0.00000000000000000000,5.00000000000000000000,1.36363636363636353543,0.90909090909090906063,0.90909090909090872756,0.45454545454545464134,1.36363636363636397952,0.00000000000000000000,0.00000000000000000000,0.00000000000000000000,0.00000000000000000000,0.68965517241379326041,1.55172413793103292079,3.27586206896551779266,2.58620689655172464327,1.89655172413793149389,0.00000000000000000000,4.00000000000000000000,0.90909090909090906063,0.45454545454545453032,1.13636363636363602048,0.68181818181818198976,1.81818181818181856535,0.00000000000000000000,0.00000000000000000000,0.17241379310344820408,0.00000000000000000000,0.86206896551724165878,3.96551724137930694525,2.58620689655172464327,1.72413793103448331756,0.34482758620689663021,0.34482758620689663021,19.00000000000000000000,0.04419117470479575621,0.01567816764855696141,-0.07828754966319155517,-0.16950735590222712479,-0.16591694675245557966,-0.08852606885258325342,-0.00704893534525356195,-0.02064469212673568019,0.01762633294871620085,0.06409832259893949447,0.15962493274905079077,0.26064417409500822975,0.36705839001277101863,0.45162551786815918753,0.50084033316002407599,0.52338722638113854835,0.52776189332134892940,0.52830705800320332255,0.53408881986206757642,0.54400481055734040137,0.56592760366680583406,0.59686542644241724620,0.64531001486680772405,0.67112238923891787135,0.73839414785582713208,0.21600479235127550970,0.66800000000000003819,0.18399999999999999689,0.48399999999999998579,0.08399999999999999134,0.06629962599114180843,0.28400000000000003020,-0.03820827023420730884,0.41599999999999998090,0.29026482615818255395,-0.00544027600527186017,0.23200000000000001177,0.25200000000000000178,3.35047952242782187682,0.27553069420539300083,0.72446930579460699917,0.12578886976477338111,0.42520080321285141922,0.62284853700516351616,0.34731784279977051533,0.37715146299483648384,0.12800000000000000266,0.19155192197360870754,0.30000000000000004441,0.44886689615605279702,0.42800000000000004707,0.64041881812966150456,2.33921568627450948696,0.09600000000000000200,0.14371772805507743165,0.14400000000000001688,0.21550487664945494615,0.23999999999999999112,0.35922260470453243331,1.50000000000000000000,0.06400000000000000133,0.09581181870338496831,0.09199999999999999845,0.13769363166953529909,0.15599999999999999978,0.23350545037292025352,1.43750000000000000000,1.76279938635236632649,8.90013904217283524645,17.89715583090686124024,5.09656907707752715453,10.66293842852520157294,22.99372490798438661841,0.16402205894728694169,0.83597794105271305831,0.77944650265356574259,0.22055349734643436843,0.31723150631603924676,0.68276849368396064222,0.48685163180197860155,0.54112795119692425061,0.00932105997534887071,-0.00737266297701549833,-0.00350459234819122667,-0.00424309056942412388,0.00398392888887216801,0.18725820910947904574,0.87016782695915395607,0.94780180185140117111,0.92381806165486657356,0.35143393999389771487,-0.79058326564199066233,-0.37587894086827733364,-0.45538722595270331173,0.42721139049339329485,5.12001581713558273634,5.70004395859657719825,5.53010904719738416446,2.07942882646800253355,0.02800000000000000058,0.10000000000000000555,0.06400000000000000133,0.01200000000000000025,0.15199999999999999623,0.04195352839931153210,0.14959839357429718931,0.09595524956970739872,0.01800057372346529003,0.22748135398737806545,0.15599999999999999978,0.05599999999999999423,0.00800000000000000017,0.02000000000000000042,0.17199999999999998623,0.23357716580608145485,0.08397877223178427941,0.01197647733792312104,0.02997705106138840933,0.25745840504876649213,-0.38652848931440336733,-0.00559031524320182001,0.04068290117898992753,0.00376408043430941780
53,53_2,107,63,,,,88.23529411764707219845,85.00000000000000000000,0.97004263663176837351,0.00000000000000000000,0.92545025751882659115,34.00000000000000000000,0.91938081311326969036,18.00000000000000000000,0.87016773304371308750,10.00000000000000000000,0.66110853016557835637,6.00000000000000000000,1.73913043478260864738,0.65217391304347827052,0.65217391304347804848,0.65217391304347838155,1.30434782608695676309,1.05263157894736836262,1.40350877192982448349,2.10526315789473628115,1.75438596491228127050,0.52631578947368429233,0.52631578947368373722,0.35087719298245617638,0.52631578947368429233,0.52631578947368429233,1.22807017543859675612,23.00000000000000000000,0.00000000000000000000,0.43478260869565216185,1.08695652173913015481,1.30434782608695676309,2.17391304347826164189,1.92982456140350877583,1.22807017543859653408,3.85964912280701621938,2.80701754385964941108,0.17543859649122808819,0.00000000000000000000,0.00000000000000000000,0.00000000000000000000,0.00000000000000000000,0.00000000000000000000,12.00000000000000000000,1.73913043478260864738,0.21739130434782608092,0.43478260869565199531,0.86956521739130454574,1.73913043478260909147,0.35087719298245612087,0.52631578947368418131,0.52631578947368407029,1.40350877192982470554,3.68421052631579026837,1.57894736842105110064,1.22807017543859675612,0.70175438596491235277,0.00000000000000000000,0.00000000000000000000,6.00000000000000000000,1.30434782608695654105,0.43478260869565216185,1.08695652173913015481,0.86956521739130454574,1.30434782608695676309,0.00000000000000000000,0.00000000000000000000,0.00000000000000000000,0.00000000000000000000,0.35087719298245617638,1.40350877192982337327,1.75438596491228127050,2.98245614035087758253,2.80701754385964941108,0.70175438596491235277,3.00000000000000000000,0.86956521739130432369,0.65217391304347827052,1.08695652173913015481,1.52173913043478292728,0.86956521739130454574,0.00000000000000000000,0.00000000000000000000,0.17543859649122800493,1.05263157894736858466,2.80701754385964941108,3.50877192982455854420,2.28070175438596534079,0.17543859649122808819,0.00000000000000000000,0.00000000000000000000,17.00000000000000000000,0.04763445901207533778,0.01133259327704271013,-0.08997482420585262153,-0.18762498821812723104,-0.18246021070255774577,-0.09412643609663920441,-0.00790312984509079081,-0.02108567632735334693,0.02712513833060464091,0.08247461594947155805,0.18894751813335738944,0.30344228577990861595,0.41637232130681012254,0.50046292472673648000,0.54033796567319869464,0.55624670644864071534,0.55195102980194066244,0.55774483868378177398,0.56737487142216003200,0.60080550272637212039,0.64386473199875293716,0.69129238507502877020,0.75088988394717115504,0.77954268384101876865,0.85720139731784494863,0.22509981574643295188,0.68399999999999994138,0.19200000000000000400,0.49199999999999999289,0.09199999999999999845,0.06308809141929552777,0.30399999999999999245,-0.03452576468930990128,0.44000000000000000222,0.27266891432512596616,-0.00195418626892146508,0.24799999999999999822,0.24399999999999999467,3.20077503463706714015,0.28071135430916549502,0.71928864569083450498,0.13454172366621067192,0.44445964432284545964,0.64329685362517108338,0.36258549931600547733,0.35670314637482902764,0.11999999999999999556,0.17544459644322846215,0.33199999999999996181,0.48522571819425441841,0.45199999999999995737,0.66067031463748282505,2.76666666666666660745,0.09199999999999999845,0.13454172366621067192,0.14399999999999998912,0.21053351573187414902,0.23599999999999998757,0.34507523939808482094,1.56818181818181834331,0.06400000000000000133,0.09357045143638850759,0.08799999999999999489,0.12865937072503419447,0.15199999999999999623,0.22222982216142272982,1.37500000000000000000,1.15224207153358060296,7.82863063259898961377,16.53520108677480493498,4.89068128470895491233,8.98087270413256888446,21.42588237148375895913,0.12740699681945075183,0.87259300318054933143,0.77211549971193926822,0.22788450028806084280,0.29536414481308093105,0.70463585518691906895,0.52853049053682965575,0.52276808822259768217,0.00813482682628757087,-0.00701462187825979688,-0.00270796153944702356,-0.00380899489215807963,0.00373733203075854448,0.15074421382367705902,0.78709045746880779149,0.84666102636079032528,0.79906553157382709252,0.32850722503579632416,-0.86566075232664596584,-0.33617946169688217584,-0.47235370594878367534,0.45949505767227183384,5.44548306478009358500,5.95390326765039290535,5.55054139549014546873,2.28203470454171464255,0.04000000000000000083,0.10000000000000000555,0.06400000000000000133,0.02000000000000000042,0.13600000000000000977,0.05841313269493843968,0.14610123119015050452,0.09384404924760601785,0.02934336525307797497,0.19870041039671682004,0.15199999999999999623,0.05199999999999999761,0.01200000000000000025,0.03200000000000000067,0.16799999999999998268,0.22229822161422707616,0.07619699042407659939,0.01764705882352941152,0.04699042407660738996,0.24569083447332423775,-0.51662264235325183748,-0.00470190932822591411,-0.05712758468098003833,0.01474974755992574521
