patient,trial,SP,DP,ppg_fft_peaks_0,ppg_fft_peaks_heights_0,ppg_fft_peaks_neighbor_avgs_0,hr_0,p2p_0,ppg_max_neighbor_mean_0,ppg_min_0,vpg_max_neighbor_mean_0,vpg_min_0,apg_max_neighbor_mean_0,apg_min_0,ppg3_max_neighbor_mean_0,ppg3_min_0,ppg4_max_neighbor_mean_0,ppg4_min_0,ppg_histogram_up_0,ppg_histogram_up_1,ppg_histogram_up_2,ppg_histogram_up_3,ppg_histogram_up_4,ppg_histogram_down_0,ppg_histogram_down_1,ppg_histogram_down_2,ppg_histogram_down_3,ppg_histogram_down_4,ppg_histogram_down_5,ppg_histogram_down_6,ppg_histogram_down_7,ppg_histogram_down_8,ppg_histogram_down_9,ppg_max_0,vpg_histogram_up_0,vpg_histogram_up_1,vpg_histogram_up_2,vpg_histogram_up_3,vpg_histogram_up_4,vpg_histogram_down_0,vpg_histogram_down_1,vpg_histogram_down_2,vpg_histogram_down_3,vpg_histogram_down_4,vpg_histogram_down_5,vpg_histogram_down_6,vpg_histogram_down_7,vpg_histogram_down_8,vpg_histogram_down_9,vpg_max_0,apg_histogram_up_0,apg_histogram_up_1,apg_histogram_up_2,apg_histogram_up_3,apg_histogram_up_4,apg_histogram_down_0,apg_histogram_down_1,apg_histogram_down_2,apg_histogram_down_3,apg_histogram_down_4,apg_histogram_down_5,apg_histogram_down_6,apg_histogram_down_7,apg_histogram_down_8,apg_histogram_down_9,apg_max_0,ppg3_histogram_up_0,ppg3_histogram_up_1,ppg3_histogram_up_2,ppg3_histogram_up_3,ppg3_histogram_up_4,ppg3_histogram_down_0,ppg3_histogram_down_1,ppg3_histogram_down_2,ppg3_histogram_down_3,ppg3_histogram_down_4,ppg3_histogram_down_5,ppg3_histogram_down_6,ppg3_histogram_down_7,ppg3_histogram_down_8,ppg3_histogram_down_9,ppg3_max_0,ppg4_histogram_up_0,ppg4_histogram_up_1,ppg4_histogram_up_2,ppg4_histogram_up_3,ppg4_histogram_up_4,ppg4_histogram_down_0,ppg4_histogram_down_1,ppg4_histogram_down_2,ppg4_histogram_down_3,ppg4_histogram_down_4,ppg4_histogram_down_5,ppg4_histogram_down_6,ppg4_histogram_down_7,ppg4_histogram_down_8,ppg4_histogram_down_9,ppg4_max_0,usdc_0,usdc_1,usdc_2,usdc_3,usdc_4,usdc_5,dsdc_0,dsdc_1,dsdc_2,dsdc_3,dsdc_4,dsdc_5,dsdc_6,dsdc_7,dsdc_8,dsdc_9,dsdc_10,dsdc_11,dsdc_12,dsdc_13,dsdc_14,dsdc_15,dsdc_16,dsdc_17,dsdc_18,ppg_mean_cycles_match_peak_59,Tc,Ts,Td,Tsteepest,Steepest,TNegSteepest,NegSteepest,TdiaRise,DiaRise,SteepDiaRise,TSystoDiaRise,TdiaToEnd,Ratio,Ts_norm,Td_norm,Tsteepest_norm,TNegSteepest_norm,TdiaRise_norm,TSystoDiaRise_norm,TdiaToEnd_norm,SW25,SW25_norm,DW25,DW25_norm,SWaddDW25,SWaddDW25_norm,DWdivSW25,SW50,SW50_norm,DW50,DW50_norm,SWaddDW50,SWaddDW50_norm,DWdivSW50,SW75,SW75_norm,DW75,DW75_norm,SWaddDW75,SWaddDW75_norm,DWdivSW75,S1,S2,S3,S4,AUCsys,AUCdia,S1_norm,S2_norm,S3_norm,S4_norm,AUCsys_norm,AUCdia_norm,SQI_skew,SQI_kurtosis,apg_a,apg_b,apg_c,apg_d,apg_e,ppg_a,ppg_b,ppg_c,ppg_d,ppg_e,ratio_apg_b,ratio_apg_c,ratio_apg_d,ratio_apg_e,ratio_ppg_b,ratio_ppg_c,ratio_ppg_d,ratio_ppg_e,T_a,T_b,T_c,T_d,T_e,T_a_norm,T_b_norm,T_c_norm,T_d_norm,T_e_norm,T_peak_a,T_peak_b,T_peak_c,T_peak_d,T_peak_e,T_peak_a_norm,T_peak_b_norm,T_peak_c_norm,T_peak_d_norm,T_peak_e_norm,AI,bd,bcda,sdoo
6,6_1,101,71,,,,85.22727272727271952135,88.00000000000000000000,0.97926389295458060591,79.00000000000000000000,0.81945581657515076390,34.00000000000000000000,0.82762552768833153038,15.00000000000000000000,0.68338430930415317022,7.00000000000000000000,0.73538575823917051721,6.00000000000000000000,1.50000000000000000000,0.75000000000000000000,0.74999999999999977796,0.50000000000000011102,1.50000000000000044409,1.50000000000000000000,1.00000000000000000000,0.66666666666666640761,0.66666666666666674068,1.00000000000000022204,0.99999999999999922284,1.00000000000000022204,0.50000000000000011102,0.50000000000000011102,2.16666666666666696273,20.00000000000000000000,0.00000000000000000000,1.00000000000000000000,1.24999999999999955591,1.00000000000000022204,1.75000000000000044409,2.66666666666666651864,6.00000000000000000000,1.33333333333333281523,0.00000000000000000000,0.00000000000000000000,0.00000000000000000000,0.00000000000000000000,0.00000000000000000000,0.00000000000000000000,0.00000000000000000000,11.00000000000000000000,1.50000000000000000000,0.50000000000000000000,0.24999999999999991673,1.50000000000000044409,1.25000000000000044409,0.00000000000000000000,0.00000000000000000000,0.16666666666666660190,2.33333333333333392545,6.00000000000000088818,1.33333333333333214910,0.16666666666666668517,0.00000000000000000000,0.00000000000000000000,0.00000000000000000000,6.00000000000000000000,1.00000000000000000000,0.75000000000000000000,0.99999999999999966693,1.75000000000000044409,0.50000000000000011102,0.00000000000000000000,0.00000000000000000000,0.00000000000000000000,0.00000000000000000000,0.33333333333333337034,2.16666666666666474228,3.00000000000000044409,2.16666666666666696273,1.66666666666666718477,0.66666666666666674068,22.00000000000000000000,0.25000000000000000000,1.50000000000000000000,1.99999999999999933387,1.25000000000000044409,0.00000000000000000000,0.00000000000000000000,0.00000000000000000000,0.33333333333333320381,0.66666666666666674068,2.16666666666666696273,3.16666666666666385410,2.00000000000000044409,0.66666666666666674068,0.66666666666666674068,0.33333333333333337034,77.00000000000000000000,0.03270184630767028477,0.01269512919379784180,-0.10497590903568490561,-0.21082377451116057765,-0.21111937995647483968,-0.11436463988577312556,-0.01283061797167115228,-0.02866448681610703209,-0.03048045283331259764,-0.01186489918766858026,0.02710939728039049590,0.08268137766925973131,0.11137265169425386580,0.13141666833180684626,0.17012107622756453273,0.22707994142823509365,0.26429753426990976184,0.33647835502888390202,0.39786292327102429356,0.48889217860115019576,0.60116534767375950921,0.71568761755084042697,0.77340599242364693744,0.85532454332743435010,0.92728576674129725710,0.34317883963646123036,0.77600000000000002309,0.22000000000000002887,0.55600000000000004974,0.10800000000000001266,0.06768587313901380798,0.24399999999999999467,-0.01283054538215333551,0.33600000000000002087,0.74541780580899219544,-0.00047027914269892612,0.11599999999999999201,0.44000000000000000222,1.35475522441942164420,0.28122005748961992344,0.71877994251038002105,0.13792185670179921142,0.31177472585968274421,0.42733950814436283405,0.14611945065474291061,0.57266049185563716595,0.15199999999999999623,0.19493239646545301724,0.41200000000000003286,0.53289683807090382217,0.56400000000000005684,0.72782923453635683941,2.80113636363636331339,0.11600000000000000588,0.14867454487384224038,0.29600000000000004086,0.38379644416054509160,0.41200000000000003286,0.53247098903438727646,2.67892156862745078882,0.08799999999999999489,0.11231768338124135942,0.16000000000000000333,0.20951772596614501309,0.24799999999999999822,0.32183540934738635864,2.15178571428571441260,1.75369376242224195295,9.76284558616650244289,9.50064474075052523006,20.25981128554445120926,11.51653934858874528402,29.76045602629497821567,0.16168607730491194041,0.83831392269508797632,0.37721327059502623991,0.62278672940497381560,0.28843118372722942322,0.71156881627277046576,0.02866511162508952881,0.59414261955112523950,0.01279060366391089609,-0.01004932579231265777,0.00332975225113957274,-0.00661261462074125284,0.00543889747191944606,0.26299039561153403355,0.85406151526857554401,0.90557290566528714226,0.87736182598319722992,0.66368618639611998145,-0.78566223294096770857,0.26069307507615935293,-0.51687919327088149846,0.42548342535248317997,3.24729804262203103349,3.44196647023262292109,3.33446242732168807166,2.52448407019976173160,0.05200000000000000455,0.08399999999999999134,0.14000000000000001332,0.02800000000000000058,0.08000000000000000167,0.06563398275311402297,0.10864473544128606941,0.18348770360907057375,0.03593101245608432137,0.10028744809964867946,0.16799999999999998268,0.08400000000000000522,0.05600000000000000810,0.08400000000000000522,0.16399999999999997913,0.21558607473650590047,0.10694133929521984494,0.07654636431385074269,0.11247737676993506406,0.21276482486958372964,-0.95495954009872874302,-0.00298219877768695664,-0.52947611474624556305,0.01438607571317143848
6,6_2,101,71,,,,74.25742574257425587803,101.00000000000000000000,0.95490263546594356114,3.00000000000000000000,0.86288981489845717476,34.00000000000000000000,0.83374767110828573724,17.00000000000000000000,0.65406415595362299431,12.00000000000000000000,0.40825094816687268473,7.00000000000000000000,1.57894736842105265495,0.78947368421052632748,0.52631578947368407029,0.52631578947368429233,1.57894736842105309904,1.47540983606557385421,1.14754098360655731881,0.98360655737704882906,1.47540983606557407626,1.14754098360655754085,0.65573770491803218263,0.49180327868852469209,0.49180327868852469209,0.65573770491803284877,1.47540983606557407626,19.00000000000000000000,0.00000000000000000000,1.05263157894736836262,1.05263157894736814058,1.05263157894736858466,1.84210526315789513419,1.63934426229508201089,6.39344262295082010894,1.96721311475409765812,0.00000000000000000000,0.00000000000000000000,0.00000000000000000000,0.00000000000000000000,0.00000000000000000000,0.00000000000000000000,0.00000000000000000000,9.00000000000000000000,1.84210526315789469010,0.26315789473684209065,0.26315789473684203514,0.78947368421052654952,1.84210526315789513419,0.00000000000000000000,0.16393442622950818444,0.16393442622950812892,2.95081967213114815252,4.91803278688524692086,1.80327868852458861326,0.00000000000000000000,0.00000000000000000000,0.00000000000000000000,0.00000000000000000000,4.00000000000000000000,0.78947368421052632748,0.78947368421052632748,1.05263157894736814058,1.31578947368421084185,1.05263157894736858466,0.00000000000000000000,0.00000000000000000000,0.00000000000000000000,0.00000000000000000000,0.32786885245901642438,2.29508196721311286126,4.59016393442623016341,1.47540983606557407626,0.98360655737704938417,0.32786885245901642438,21.00000000000000000000,1.57894736842105265495,1.84210526315789469010,1.31578947368421017572,0.26315789473684214617,0.00000000000000000000,0.65573770491803273774,0.81967213114754100545,0.32786885245901625785,2.29508196721311508171,2.45901639344262346043,1.63934426229508067863,1.31147540983606569753,0.16393442622950821219,0.00000000000000000000,0.32786885245901642438,79.00000000000000000000,-0.00463870136712329559,-0.07115202694742817080,-0.18897820963048331255,-0.27714290185015838519,-0.26054720858570123987,-0.15037023710485727945,-0.00574891573536909142,-0.01757542940068279255,-0.02456511715232321744,-0.00600952550262431103,0.06307462806088531826,0.17357077879385088282,0.25091692473850291112,0.30929472422254472574,0.34964114170581511720,0.40384818035535197112,0.42168799859610955894,0.46498607754867576913,0.50192213142195252207,0.57107505456916052289,0.64031378082632450788,0.73482848403685230299,0.78065166012199360690,0.84830521027546801349,0.87007792677898487810,0.36373693314210686633,0.81200000000000005507,0.17199999999999998623,0.64000000000000001332,0.08399999999999999134,0.07345905246141432032,0.20800000000000001821,-0.01420875903291191067,0.32799999999999995826,0.74337700850888377424,-0.00219720892780611576,0.15599999999999999978,0.48399999999999998579,1.33003940435790068975,0.21182983682983683171,0.78817016317016319604,0.10363247863247862512,0.25582750582750579671,0.40685703185703187001,0.19502719502719503830,0.59314296814296818550,0.11599999999999999201,0.14282245532245529951,0.48399999999999998579,0.59775641025641024218,0.60000000000000008882,0.74057886557886565271,4.19047619047619068766,0.08399999999999999134,0.10338966588966588822,0.30799999999999999600,0.38136169386169382900,0.39200000000000001510,0.48475135975135974498,3.70909090909090899402,0.05999999999999999778,0.07381507381507382282,0.14000000000000001332,0.17263986013986015733,0.20000000000000001110,0.24645493395493395239,2.34821428571428558740,1.18951935182003087910,7.18972796034219729933,13.74566707213588045988,19.50827194331527181248,8.37924731216222795638,33.25393901545115227236,0.14357508987830261415,0.85642491012169730258,0.38951918162281057301,0.61048081837718948250,0.20406626509904102207,0.79593373490095897793,0.13394660848071826553,0.53262337125646253000,0.01252323845604427083,-0.00781683097788299364,0.00413020732952967817,-0.00677360907787377675,0.00552330414036231176,0.11379206958399032401,0.76543327686148576738,0.86783355592833544279,0.79119565555931758993,0.54001772417212312583,-0.61765191758336546179,0.33132830616385922085,-0.55199347721813563084,0.44338138190072684530,8.22437378798074547603,8.84762222827581545914,8.02573844284514592573,5.89354285774154718069,0.01600000000000000033,0.08799999999999999489,0.11599999999999999201,0.05200000000000000455,0.10799999999999999878,0.01971639471639471952,0.10892579642579643118,0.14209401709401708880,0.06444250194250195074,0.13175019425019424135,0.15599999999999999978,0.06800000000000000488,0.04800000000000000100,0.10000000000000000555,0.20800000000000001821,0.19211344211344211219,0.08318764568764569489,0.05890637140637140778,0.12334887334887335852,0.25509906759906758600,-0.84036812842981611915,-0.00338438442188776153,-0.39698674652908916283,0.02308777235555386359
6,6_3,101,71,,,,66.96428571428572240620,112.00000000000000000000,0.96497195382998091073,79.00000000000000000000,0.79971931351541702959,30.00000000000000000000,0.75348676680177173459,15.00000000000000000000,0.74838500435453636506,11.00000000000000000000,0.51009843530344745055,9.00000000000000000000,0.00000000000000000000,1.56250000000000000000,0.93749999999999966693,0.62500000000000011102,1.87500000000000044409,0.78125000000000000000,1.09375000000000000000,1.40624999999999955591,1.25000000000000022204,1.09375000000000022204,1.24999999999999888978,0.78125000000000022204,0.46875000000000011102,0.46875000000000011102,1.40625000000000022204,16.00000000000000000000,0.00000000000000000000,1.25000000000000000000,1.24999999999999955591,0.62500000000000011102,1.87500000000000044409,1.71875000000000000000,3.12500000000000000000,5.15624999999999822364,0.00000000000000000000,0.00000000000000000000,0.00000000000000000000,0.00000000000000000000,0.00000000000000000000,0.00000000000000000000,0.00000000000000000000,8.00000000000000000000,1.56250000000000000000,0.31250000000000000000,0.62499999999999977796,0.62500000000000011102,1.87500000000000044409,0.00000000000000000000,0.62500000000000000000,1.71874999999999933387,2.34375000000000044409,3.12500000000000088818,2.03124999999999822364,0.15625000000000002776,0.00000000000000000000,0.00000000000000000000,0.00000000000000000000,5.00000000000000000000,0.93750000000000000000,0.62500000000000000000,0.62499999999999977796,0.62500000000000011102,2.18750000000000044409,1.25000000000000000000,0.15625000000000000000,0.78124999999999977796,0.62500000000000011102,0.93750000000000022204,2.03124999999999822364,2.34375000000000044409,1.25000000000000022204,0.62500000000000011102,0.00000000000000000000,1.00000000000000000000,0.93750000000000000000,1.87500000000000000000,0.93749999999999966693,0.93750000000000022204,0.31250000000000005551,0.00000000000000000000,0.62500000000000000000,2.96874999999999911182,2.96875000000000044409,2.34375000000000044409,0.93749999999999922284,0.00000000000000000000,0.15625000000000002776,0.00000000000000000000,0.00000000000000000000,12.00000000000000000000,-0.02483013471388093030,-0.03632494253515521077,-0.11404656029425812303,-0.20868166189269254929,-0.23715997314834016962,-0.18169281563604056107,-0.03417668474729987360,-0.05837156783524375531,-0.04990160482062837993,0.01588057226470198161,0.08380410725384072890,0.15770485251921781411,0.18977938319037043757,0.22549977190515471670,0.24065237751632126417,0.29849746210906252797,0.34308542529908231389,0.40143929102841496848,0.43525832028135608143,0.47967067916650746318,0.51386398219452555924,0.57825247533075518902,0.62573194192444603345,0.71206943847776615897,0.79167574748183022759,0.27354951832637941500,0.90799999999999991829,0.22000000000000000111,0.68799999999999994493,0.11200000000000000233,0.06702600528795082946,0.31600000000000000311,-0.02288923510474732970,0.49599999999999999645,0.52971087130372840335,-0.00582632744356448296,0.27600000000000002309,0.41200000000000003286,1.84787537836094317711,0.24221910986616868033,0.75778089013383131967,0.12278244631185807056,0.34819483348895113872,0.54754123871770932208,0.30532212885154064175,0.45245876128229067792,0.18800000000000000044,0.20518207282913164535,0.58400000000000007461,0.64810924369747890950,0.77200000000000001954,0.85329131652661061036,3.37068965517241370122,0.10799999999999999878,0.11900871459694989385,0.31600000000000000311,0.34990662931839400240,0.42399999999999998801,0.46891534391534395176,2.93681318681318703767,0.08000000000000000167,0.08831310301898537274,0.13600000000000000977,0.15013227513227511700,0.21599999999999999756,0.23844537815126048974,1.69999999999999995559,2.69981849645805915827,9.27175609341634299199,22.23492960053118849828,12.50823313327852659427,11.97157458987440215026,34.74316273380971153983,0.18947742611506207533,0.81052257388493798018,0.64467872171013129723,0.35532127828986870277,0.25159711435836495941,0.74840288564163515161,0.36471938384202307049,0.51127303676227997542,0.00682441036161449133,-0.00845063686792035806,0.00105157960207252765,-0.00477222643204033847,0.00351071975618411081,0.25778257898701067985,0.77761160819636643282,0.93000044055765296314,0.86556889291548366749,0.60778264904546630554,-3.77593323040371853239,0.16290008052843404918,-1.92324622665451960835,1.01644788321532586473,3.00166214542831877310,3.61574173340089455309,3.36837610236633633320,2.36344194513425565063,0.02400000000000000050,0.10399999999999999523,0.12399999999999999911,0.04000000000000000083,0.11199999999999998845,0.02777777777777777624,0.11223934018051665018,0.13709928415810768154,0.04415655150949268637,0.12406629318394024608,0.19600000000000000755,0.09199999999999999845,0.03200000000000000067,0.07200000000000000844,0.18399999999999999689,0.21444133208839089022,0.10220199190787426780,0.03489729225023342762,0.07905384375972611399,0.20312013694366637395,-3.03203496749295853263,-0.00344880465451786154,-2.01558708427763288995,0.02144042995867253068
8,8_1,136,93,,,,88.75739644970414587988,84.50000000000000000000,0.96484567606910387472,0.00000000000000000000,0.90089825942835566330,32.00000000000000000000,0.90564059036016608673,16.00000000000000000000,0.80078374007663444267,10.00000000000000000000,0.64048294167784347586,9.00000000000000000000,1.75000000000000000000,0.50000000000000000000,0.74999999999999977796,0.50000000000000011102,1.50000000000000044409,1.66666666666666674068,1.66666666666666674068,1.16666666666666629659,2.00000000000000044409,0.66666666666666674068,0.33333333333333303727,0.50000000000000011102,0.33333333333333337034,0.50000000000000011102,1.16666666666666696273,20.00000000000000000000,0.00000000000000000000,0.50000000000000000000,0.99999999999999966693,1.25000000000000044409,2.25000000000000044409,1.66666666666666674068,0.83333333333333337034,5.83333333333333126092,1.50000000000000022204,0.16666666666666668517,0.00000000000000000000,0.00000000000000000000,0.00000000000000000000,0.00000000000000000000,0.00000000000000000000,11.00000000000000000000,1.50000000000000000000,0.50000000000000000000,0.24999999999999991673,0.50000000000000011102,2.25000000000000044409,0.16666666666666665741,0.33333333333333331483,0.49999999999999983347,0.83333333333333359239,2.66666666666666696273,3.49999999999999689138,1.16666666666666696273,0.83333333333333359239,0.00000000000000000000,0.00000000000000000000,6.00000000000000000000,1.50000000000000000000,0.25000000000000000000,0.99999999999999966693,1.25000000000000044409,1.00000000000000022204,0.00000000000000000000,0.00000000000000000000,0.00000000000000000000,0.16666666666666668517,0.33333333333333337034,2.16666666666666474228,3.66666666666666740682,2.16666666666666696273,1.50000000000000022204,0.00000000000000000000,0.00000000000000000000,0.75000000000000000000,1.25000000000000000000,0.99999999999999966693,1.75000000000000044409,0.25000000000000005551,0.00000000000000000000,0.00000000000000000000,0.00000000000000000000,1.33333333333333348136,2.83333333333333392545,2.83333333333333081683,2.50000000000000044409,0.33333333333333337034,0.00000000000000000000,0.16666666666666668517,79.00000000000000000000,-0.00082049219590707434,-0.06543129782937567862,-0.15413761518643270820,-0.23963743016733035640,-0.21952426246876202698,-0.11737978734233764366,-0.00982118646511956177,-0.01558252037653390897,0.02509390466088464236,0.10646157421986884861,0.23269893497750041012,0.35028731660421918992,0.44112877312131282270,0.47895882591000282780,0.49283228707988574469,0.49260636998570495049,0.52983972568511028545,0.57689975911305679812,0.63477699778064744507,0.69547005090244851111,0.74643067123762940618,0.78340219405646394080,0.82108678005409485579,0.85780202407070027526,0.90188488863311944144,0.18753895091123001793,0.61066666666666669094,0.17866666666666666807,0.43199999999999999512,0.08799999999999998102,0.07905581919075349573,0.25600000000000000533,-0.03907083153747995669,0.36266666666666669272,0.40516317592346434706,-0.00774223142506115947,0.18400000000000002465,0.24799999999999999822,2.47682654161366544443,0.30071900505246790258,0.69928099494753215293,0.14968784508232624297,0.42754119396171469392,0.60106940820116105950,0.30035040314869304590,0.39893059179883899601,0.11199999999999998845,0.18845736247601774238,0.29066666666666662877,0.48636018729295060758,0.40266666666666667274,0.67481754976896846099,2.60244200244200252214,0.08533333333333333048,0.14299903145608547361,0.13866666666666668806,0.23391569349595001115,0.22399999999999997691,0.37691472495203548476,1.62424242424242426530,0.06133333333333332998,0.10291704452217471932,0.08000000000000000167,0.13360662311303586613,0.14133333333333333859,0.23652366763521057158,1.30952380952380953438,1.27103522138174063194,7.92613996498091566423,14.85788447359309394358,6.44826063159468976238,9.19717518636265651821,21.30614510518778459414,0.13977986786811266717,0.86022013213188730507,0.69545889236700275671,0.30454110763299735432,0.30202274457358752047,0.69797725542641242402,0.37706823917930837320,0.51122963135102605925,0.00772453372906051899,-0.00845187855878259953,-0.00190796580828289652,-0.00477322766531740328,0.00380127161704566863,0.10947457886789284387,0.76995429485161037686,0.91315966314787966329,0.81731686985911966570,0.46533611531655544313,-1.20774744542882639387,-0.23264831603058355736,-0.63713587230833079733,0.52616346558690751944,16.29226835569915010637,18.03790888459997177051,15.30777147928870896010,8.86140508421409300865,0.01333333333333333419,0.09333333333333333759,0.09066666666666667318,0.02933333333333333279,0.09066666666666665930,0.02008032128514056214,0.16306547233480772618,0.14821497973460662223,0.04801849487041868342,0.14422976082517471874,0.16533333333333335990,0.07199999999999999456,0.01866666666666666821,0.04799999999999999406,0.13866666666666663255,0.28063868376732736820,0.11757321143251962814,0.03064176830208699409,0.07866026317250568445,0.22289002399768045870,-0.86412672267681978067,-0.00578495316051372190,-0.33796325708991209469,0.03480867868930431069
8,8_2,136,93,,,,91.46341463414634631590,82.00000000000000000000,0.96989910117510480525,0.00000000000000000000,0.90242081719228983694,30.00000000000000000000,0.83662842772752821219,15.00000000000000000000,0.93109577115221842103,9.00000000000000000000,0.71974790785734510390,7.00000000000000000000,1.73913043478260864738,0.65217391304347827052,0.43478260869565199531,0.65217391304347838155,1.52173913043478292728,1.05263157894736836262,1.57894736842105265495,1.92982456140350810969,1.92982456140350921991,0.70175438596491235277,0.52631578947368373722,0.35087719298245617638,0.52631578947368429233,0.35087719298245617638,1.05263157894736858466,23.00000000000000000000,0.00000000000000000000,0.86956521739130432369,1.08695652173913015481,1.08695652173913082095,1.95652173913043503362,1.92982456140350877583,1.05263157894736836262,4.21052631578947256230,2.80701754385964941108,0.00000000000000000000,0.00000000000000000000,0.00000000000000000000,0.00000000000000000000,0.00000000000000000000,0.00000000000000000000,12.00000000000000000000,1.73913043478260864738,0.43478260869565216185,0.21739130434782599766,1.08695652173913082095,1.52173913043478292728,0.17543859649122806044,0.52631578947368418131,0.52631578947368407029,0.52631578947368429233,4.73684210526315929712,1.75438596491227927210,1.75438596491228127050,0.00000000000000000000,0.00000000000000000000,0.00000000000000000000,7.00000000000000000000,0.86956521739130432369,0.65217391304347827052,0.65217391304347804848,1.30434782608695676309,1.52173913043478292728,0.00000000000000000000,0.00000000000000000000,0.00000000000000000000,0.00000000000000000000,0.00000000000000000000,1.22807017543859542386,3.15789473684210575399,2.98245614035087758253,2.28070175438596534079,0.35087719298245617638,79.00000000000000000000,0.86956521739130432369,0.21739130434782608092,1.73913043478260798125,1.95652173913043503362,0.21739130434782613643,0.00000000000000000000,0.00000000000000000000,0.17543859649122800493,0.52631578947368429233,1.40350877192982470554,3.50877192982455854420,1.75438596491228127050,2.10526315789473716933,0.52631578947368429233,0.00000000000000000000,19.00000000000000000000,0.03348978664051420473,0.00305170050531702874,-0.08694991996477047236,-0.19532670868260315622,-0.19413326546042741771,-0.10179642508100994469,-0.00848596820451318241,-0.00874374006255142049,0.05265775883315777783,0.13459311566850043485,0.26299620243216587090,0.35721895093517275210,0.44155997039903438495,0.49967671889770493010,0.52211764930072301905,0.52909608398917806760,0.53497252965851727069,0.55805625202838082810,0.58992283334530037919,0.61809891428633589872,0.66027236817426571136,0.70523650932725945317,0.76613861817114725650,0.78917819281773282647,0.86713379051093020244,0.20344516285728539429,0.65600000000000002753,0.18399999999999999689,0.47199999999999997513,0.08799999999999999489,0.07824300576413217856,0.25600000000000000533,-0.04095952250490736413,0.39200000000000001510,0.31929868792165416735,-0.00279408309302114910,0.20799999999999999045,0.26400000000000001243,2.87699009751468004481,0.28035714285714286031,0.71964285714285713969,0.13363095238095237804,0.39047619047619047672,0.59761904761904760530,0.31726190476190474499,0.40238095238095239470,0.11200000000000000233,0.17083333333333333703,0.30799999999999999600,0.47023809523809523281,0.41999999999999998446,0.64107142857142851433,2.75000000000000000000,0.08799999999999999489,0.13422619047619049892,0.12800000000000000266,0.19523809523809523836,0.21599999999999999756,0.32946428571428576504,1.45454545454545458583,0.05999999999999999778,0.09166666666666667407,0.07599999999999999811,0.11607142857142857539,0.13600000000000000977,0.20773809523809522171,1.26785714285714279370,0.92277351244220506832,7.74373862524724287937,14.55294252711012781276,5.73298424810285922604,8.66651213768944828075,20.28592677521298526244,0.10535867218945102475,0.89464132781054883647,0.71795885375969248354,0.28204114624030757197,0.29956180114677333215,0.70043819885322666785,0.57846745293256163212,0.49505485728638065623,0.00917641437721125434,-0.00963814622120706677,-0.00168217492696581816,-0.00602303037049944923,0.00589264010309914488,0.08269411834424804375,0.80948720353768677249,0.81421933812254176921,0.71510821318786454981,0.40439049333442689260,-1.37738116314151848307,-0.18535359771961212871,-0.78219453407670391787,0.75574151208669304580,28.72895038557366476084,28.08777507201805434534,24.97706115969284468292,11.21733919325668082934,0.02000000000000000042,0.10400000000000000910,0.09199999999999999845,0.02400000000000000050,0.08000000000000000167,0.03095238095238095344,0.15744047619047618625,0.14107142857142856984,0.03660714285714285199,0.12053571428571428770,0.16399999999999997913,0.05999999999999999778,0.03200000000000000067,0.05600000000000000117,0.13600000000000000977,0.24940476190476190688,0.09196428571428572063,0.04910714285714285615,0.08571428571428571508,0.20624999999999998890,-1.16557454343189537127,-0.00550098165608835232,-0.40983303134520238098,0.05568000014983333357
8,8_3,136,93,,,,89.28571428571429180465,84.00000000000000000000,0.96942983573130503405,0.00000000000000000000,0.90474224961209137597,31.00000000000000000000,0.83729750906305489000,16.00000000000000000000,0.82057438964932105652,10.00000000000000000000,0.76107491635435442490,7.00000000000000000000,2.04545454545454541417,0.45454545454545453032,0.45454545454545436378,0.68181818181818198976,1.36363636363636397952,1.72413793103448265143,1.55172413793103447510,1.03448275862068927999,1.89655172413793149389,1.03448275862068994613,0.34482758620689624163,0.34482758620689663021,0.51724137931034497306,0.51724137931034497306,1.03448275862068994613,22.00000000000000000000,0.00000000000000000000,0.68181818181818176772,1.36363636363636309135,1.13636363636363668661,1.81818181818181856535,1.55172413793103447510,1.03448275862068972408,5.68965517241379092894,1.72413793103448331756,0.00000000000000000000,0.00000000000000000000,0.00000000000000000000,0.00000000000000000000,0.00000000000000000000,0.00000000000000000000,12.00000000000000000000,1.59090909090909082835,0.45454545454545453032,0.45454545454545436378,1.36363636363636397952,1.13636363636363668661,0.17241379310344828735,0.51724137931034486204,0.68965517241379281632,1.20689655172413812245,4.31034482758620818288,2.06896551724137767181,1.03448275862068994613,0.00000000000000000000,0.00000000000000000000,0.00000000000000000000,7.00000000000000000000,0.90909090909090906063,0.90909090909090906063,0.68181818181818154567,1.36363636363636397952,1.13636363636363668661,0.00000000000000000000,0.00000000000000000000,0.00000000000000000000,0.00000000000000000000,0.51724137931034497306,2.93103448275861833139,2.75862068965517304164,3.27586206896551779266,0.51724137931034497306,0.00000000000000000000,36.00000000000000000000,0.45454545454545453032,0.68181818181818176772,0.68181818181818154567,1.81818181818181856535,1.36363636363636397952,0.00000000000000000000,0.00000000000000000000,0.17241379310344820408,0.17241379310344831510,1.03448275862068994613,2.41379310344827402446,3.96551724137931138614,1.89655172413793149389,0.34482758620689663021,0.00000000000000000000,16.00000000000000000000,0.02911429006241866499,0.00363673157321161081,-0.07684892172181598258,-0.18587301180904863829,-0.19339626024998174403,-0.10514655831083802306,-0.00950806151819930459,-0.01843060579590110812,0.03139381432930451327,0.11485897242660345063,0.24385867476008044052,0.35360791691529430691,0.43012107648778086233,0.46075230741791428635,0.49123629609450847333,0.50796216076345346302,0.52264611918308778726,0.55720147911829076559,0.62070157852076435212,0.67621827364748665623,0.73327893340977734482,0.76697013754090481719,0.81845843963475728433,0.84462341642997373903,0.91234423484807058990,0.19255710165591030658,0.67599999999999993427,0.17999999999999999334,0.49599999999999999645,0.08399999999999999134,0.07665008960207875255,0.26000000000000000888,-0.03856274646436064213,0.39200000000000001510,0.31581989965849666113,-0.00482283978528172397,0.21199999999999999400,0.28400000000000003020,2.81823649120432673243,0.26597981497056349953,0.73402018502943655598,0.12384356602186710750,0.38407625455564897710,0.58003924866834877250,0.31405943369778527297,0.41996075133165122750,0.10799999999999999878,0.16007849733669751724,0.29599999999999998535,0.43860386879730867138,0.40400000000000002576,0.59868236613400616086,2.74175824175824178752,0.08799999999999999489,0.13029156153630502835,0.13200000000000000622,0.19526212503504347673,0.22000000000000000111,0.32555368657134847732,1.50000000000000000000,0.05999999999999999778,0.08901037286234930734,0.08000000000000000167,0.11844687412391365078,0.14000000000000001332,0.20745724698626297200,1.33928571428571441260,0.80425182572507047940,7.74184294527308658473,15.13757340694326103403,5.50585525309920065240,8.54609477099815606493,20.64342866004245991007,0.09407911558404194463,0.90592088441595808312,0.73345950692891404010,0.26654049307108595990,0.29280615427260237027,0.70719384572739762973,0.55367884844794668098,0.50670076767326110989,0.00746688766840194508,-0.00930557405940951599,-0.00164121836609387728,-0.00529300396791598793,0.00618535893316504715,0.06591854778001711435,0.78979373757491933006,0.82169449465829025314,0.73546102466477802917,0.41619145687876279993,-2.60052739817852973658,-0.23173163173327829267,-1.57644567021198178658,1.40283806919500197985,69.52314283440485098708,70.49627418029872671923,65.81509601849214163849,34.47594836682782215576,0.01200000000000000025,0.10800000000000001266,0.08799999999999999489,0.02400000000000000050,0.07599999999999999811,0.01829268292682926719,0.15867675918138490765,0.13029156153630502835,0.03588449677600224347,0.11199887860947575768,0.16799999999999998268,0.05999999999999999778,0.02800000000000000058,0.05200000000000000455,0.12800000000000000266,0.24768713204373421499,0.08901037286234930734,0.04128118867395570712,0.07716568544995794365,0.18916456405943371522,-2.19518816542827144289,-0.00537856949356580773,-0.79235009623326946304,0.03598823414567616646
18,18_1,118,71,,,,78.94736842105263008307,95.00000000000000000000,0.96849361901399233510,0.00000000000000000000,0.90544483593693225743,31.00000000000000000000,0.86339838002602542488,14.00000000000000000000,0.88263843097215788358,9.00000000000000000000,0.70645285008281610839,5.00000000000000000000,1.59090909090909082835,0.68181818181818176772,0.45454545454545436378,0.68181818181818198976,1.59090909090909127244,1.55172413793103447510,2.06896551724137944817,1.55172413793103403101,1.37931034482758652082,0.68965517241379326041,0.51724137931034441795,0.34482758620689663021,0.34482758620689663021,0.51724137931034497306,1.03448275862068994613,22.00000000000000000000,0.00000000000000000000,0.45454545454545453032,1.36363636363636309135,1.13636363636363668661,2.04545454545454585826,1.72413793103448265143,0.86206896551724132571,4.31034482758620551834,3.10344827586206939429,0.00000000000000000000,0.00000000000000000000,0.00000000000000000000,0.00000000000000000000,0.00000000000000000000,0.00000000000000000000,11.00000000000000000000,2.04545454545454541417,0.22727272727272726516,0.45454545454545436378,0.68181818181818198976,1.59090909090909127244,0.34482758620689657469,0.68965517241379314939,0.51724137931034464000,1.72413793103448331756,4.65517241379310409144,1.03448275862068883590,1.03448275862068994613,0.00000000000000000000,0.00000000000000000000,0.00000000000000000000,5.00000000000000000000,1.13636363636363646457,0.45454545454545453032,0.68181818181818154567,1.36363636363636397952,1.36363636363636397952,0.00000000000000000000,0.00000000000000000000,0.00000000000000000000,0.00000000000000000000,0.51724137931034497306,0.86206896551724065958,5.34482758620689768492,1.55172413793103469715,1.20689655172413812245,0.51724137931034497306,0.00000000000000000000,0.68181818181818176772,0.45454545454545453032,1.36363636363636309135,1.59090909090909127244,0.90909090909090928267,0.00000000000000000000,0.00000000000000000000,0.17241379310344820408,0.17241379310344831510,1.37931034482758652082,3.62068965517241014851,2.93103448275862099592,1.37931034482758652082,0.34482758620689663021,0.00000000000000000000,14.00000000000000000000,0.02609971095631244409,-0.02775012797343583137,-0.13786791879273196937,-0.22988828919558657038,-0.20621362572129026125,-0.10491565811788633455,-0.00948423238259356143,-0.01563226359259146242,0.04328876215926069637,0.13051428393869876632,0.26087146560024515596,0.36094764718463978603,0.44562919112247978415,0.49233567520874627066,0.52616492770376099841,0.56308935383442260125,0.59847738181256526779,0.63060427327709800416,0.67206936215932255863,0.71076713639329525130,0.75649746276533513800,0.78248408090069976328,0.82172269064546110684,0.83385357627002887337,0.89103336566510449313,0.16215232001204532564,0.75600000000000000533,0.20800000000000001821,0.54800000000000004263,0.08799999999999999489,0.06618215035275948344,0.29599999999999998535,-0.03615252527301726637,0.44400000000000000577,0.30415500083003460530,-0.00835065964307679653,0.23599999999999998757,0.31199999999999999956,3.09317276856724765466,0.27504482294935006514,0.72495517705064993486,0.11620349619004929909,0.39180860600627520629,0.58813312415956975343,0.31308830121021963278,0.41186687584043030208,0.13200000000000000622,0.17458538771851186966,0.29999999999999998890,0.39668310174809506830,0.43199999999999999512,0.57126848946660691020,2.27205882352941168634,0.10799999999999999878,0.14281712236665172755,0.14399999999999998912,0.19060959211116090817,0.25200000000000000178,0.33342671447781263572,1.33516483516483530636,0.07599999999999999811,0.10045943523083819549,0.08799999999999999489,0.11648363962348723399,0.16400000000000000688,0.21694307485432540172,1.16111111111111120486,1.03964194285029254416,10.26351528239399613085,17.42981193473725198828,5.92955717734108045391,11.30315722524428956319,23.35936911207833333037,0.09164522174486185169,0.90835477825513810668,0.74855163080033970679,0.25144836919966018218,0.32614775520082450733,0.67385224479917538165,0.57069623686043524646,0.52004312698710142282,0.00882122017847125975,-0.00572489376009677198,-0.00279775979580587641,-0.00354682860584343285,0.00323295685512731135,0.14797545662895453256,0.71036223291555422588,0.86754085628818078391,0.80635637682441396734,0.41620229602800129509,-0.65134703354492418104,-0.32095465714934390267,-0.41246028186909250435,0.37016561360548372317,4.98461849671467405187,6.02967197007854593949,5.59536158524193361075,2.95770925946786622518,0.04000000000000000083,0.07599999999999999811,0.11999999999999999556,0.02000000000000000042,0.10800000000000001266,0.05266696548632900099,0.10101972209771403755,0.15828103989242492400,0.02661362617660242152,0.14197669206633795058,0.16800000000000001044,0.09199999999999999845,0.02800000000000000058,0.04800000000000000100,0.15599999999999999978,0.22237785746302107803,0.12135813536530704049,0.03692290452711788351,0.06353653070372031197,0.20551322277005826256,-0.28809770813197149719,-0.00444250423414610518,0.08206790547351219822,0.02684236051323019359
18,18_2,118,71,,,,81.52173913043478137297,92.00000000000000000000,0.97186521522833135833,79.00000000000000000000,0.90780429867136458455,31.00000000000000000000,0.82665137633902807668,15.00000000000000000000,0.80138939686461696521,8.00000000000000000000,0.71260186323874696868,5.00000000000000000000,1.52173913043478270524,0.86956521739130432369,0.43478260869565199531,0.65217391304347838155,1.52173913043478292728,1.22807017543859653408,1.92982456140350877583,1.57894736842105221086,1.40350877192982470554,0.87719298245614063525,0.52631578947368373722,0.52631578947368429233,0.35087719298245617638,0.52631578947368429233,1.05263157894736858466,23.00000000000000000000,0.00000000000000000000,0.65217391304347827052,1.30434782608695609696,1.30434782608695676309,1.73913043478260909147,1.57894736842105265495,0.87719298245614030218,3.33333333333333214910,4.21052631578947433866,0.00000000000000000000,0.00000000000000000000,0.00000000000000000000,0.00000000000000000000,0.00000000000000000000,0.00000000000000000000,13.00000000000000000000,1.73913043478260864738,0.21739130434782608092,0.86956521739130399062,1.52173913043478292728,0.65217391304347838155,0.00000000000000000000,1.22807017543859653408,0.87719298245614008014,4.73684210526315929712,1.75438596491228127050,1.40350877192982337327,0.00000000000000000000,0.00000000000000000000,0.00000000000000000000,0.00000000000000000000,8.00000000000000000000,0.65217391304347827052,0.86956521739130432369,1.08695652173913015481,1.95652173913043503362,0.43478260869565227287,0.00000000000000000000,0.00000000000000000000,0.00000000000000000000,0.00000000000000000000,1.05263157894736858466,5.26315789473683715016,2.10526315789473716933,1.05263157894736858466,0.52631578947368429233,0.00000000000000000000,31.00000000000000000000,0.43478260869565216185,1.30434782608695654105,2.17391304347826030963,1.08695652173913082095,0.00000000000000000000,0.00000000000000000000,0.00000000000000000000,0.00000000000000000000,0.87719298245614063525,2.45614035087719351225,3.68421052631578582748,1.75438596491228127050,0.70175438596491235277,0.52631578947368429233,0.00000000000000000000,79.00000000000000000000,0.03094604533608026273,0.01406078397853946851,-0.04345943996259823278,-0.14061076171550712655,-0.15492038167619565092,-0.08735388525813797544,-0.01182233344920167323,-0.02225207124021822899,0.03385718477335332433,0.12358940063531467790,0.23802066603695531954,0.33995194288571439767,0.40323596576606612896,0.45309413610963661379,0.48580025106580126959,0.51457963223272695785,0.55290185547104109265,0.58327907369535036963,0.62217926857118044381,0.66705447207997536907,0.69785412201726826353,0.73605521796028838821,0.77771810837349975021,0.81722553976860268232,0.86385844023224223065,0.18708645649170488334,0.89600000000000001865,0.33199999999999996181,0.56400000000000005684,0.21599999999999996980,0.05273762767516754213,0.43199999999999993960,-0.03014644593483611912,0.57199999999999995293,0.45506915177389573035,-0.00712288865049659492,0.23999999999999999112,0.32400000000000001021,2.14739064741372143175,0.35499796001631989117,0.64500203998368010883,0.22456140350877190626,0.46854345165238675541,0.62917176662586693503,0.27417380660954709937,0.37082823337413300946,0.18800000000000000044,0.21546307629538963280,0.48799999999999998934,0.54638922888616892060,0.67599999999999993427,0.76185230518155855339,2.60416666666666696273,0.11999999999999999556,0.13569971440228478787,0.20400000000000001465,0.23374133006935945978,0.32400000000000001021,0.36944104447164421989,1.70982142857142860315,0.07999999999999998779,0.09000407996736026206,0.10000000000000000555,0.11493268053855569544,0.17999999999999999334,0.20493676050591597138,1.26767676767676773508,4.41877908715400380402,10.26173051960987514519,18.80600977328752065887,9.85853512108188922980,14.68050960676387894921,28.66454489436940988867,0.28146635778375095338,0.71853364221624893560,0.67215686356081127961,0.32784313643918872039,0.33422150562678482055,0.66577849437321512394,0.51243419445444082783,0.47782402281721436665,0.00627336702410202958,-0.00381572080493020049,-0.00218983998462074503,-0.00443881778949389849,0.00241282570990014600,0.19587598235826739201,0.79304519490761105072,0.84648951477375600216,0.91570071911921080421,0.57667560579295862322,-0.59720035026881301832,-0.35055756559323109078,-0.72049579674167985033,0.38274384682284579018,51.11935993326808613801,58.28579798510151732671,74.16538972025202269833,45.58882427616007504412,0.02000000000000000042,0.22799999999999998046,0.04399999999999999745,0.07200000000000000844,0.10799999999999999878,0.02631578947368420907,0.23896368829049369209,0.05512035903712770440,0.07531619747042023194,0.12129742962056302980,0.31199999999999999956,0.08399999999999999134,-0.03999999999999999389,0.03200000000000000067,0.14000000000000001332,0.32868217054263565435,0.08971848225214199002,-0.03459812321501427868,0.04071807425540595327,0.16201550387596899694,0.09110916524325213262,-0.00373195088941342306,0.47385301206609792279,0.01561120907930539474
18,18_3,118,71,,,,88.23529411764707219845,85.00000000000000000000,0.98057662470195317006,79.00000000000000000000,0.91329359891769867907,31.00000000000000000000,0.88130609441582652419,15.00000000000000000000,0.71556126885292781203,7.00000000000000000000,0.66831874358580412032,77.00000000000000000000,1.13636363636363646457,0.90909090909090906063,0.68181818181818154567,0.68181818181818198976,1.59090909090909127244,1.55172413793103447510,1.55172413793103447510,1.20689655172413745632,1.37931034482758652082,1.03448275862068994613,0.68965517241379248325,0.51724137931034497306,0.51724137931034497306,0.34482758620689663021,1.20689655172413812245,22.00000000000000000000,0.00000000000000000000,0.68181818181818176772,1.13636363636363602048,1.13636363636363668661,2.04545454545454585826,1.55172413793103447510,2.93103448275862055183,5.17241379310344662201,0.34482758620689663021,0.00000000000000000000,0.00000000000000000000,0.00000000000000000000,0.00000000000000000000,0.00000000000000000000,0.00000000000000000000,11.00000000000000000000,2.04545454545454541417,0.22727272727272726516,0.68181818181818154567,0.68181818181818198976,1.36363636363636397952,0.17241379310344828735,1.03448275862068972408,0.34482758620689640816,0.17241379310344831510,5.17241379310344928655,2.24137931034482562609,0.68965517241379326041,0.17241379310344831510,0.00000000000000000000,0.00000000000000000000,6.00000000000000000000,1.13636363636363646457,0.45454545454545453032,1.13636363636363602048,1.13636363636363668661,1.13636363636363668661,0.00000000000000000000,0.00000000000000000000,0.00000000000000000000,0.17241379310344831510,1.37931034482758652082,5.17241379310344306930,1.55172413793103469715,1.37931034482758652082,0.34482758620689663021,0.00000000000000000000,4.00000000000000000000,0.00000000000000000000,0.90909090909090906063,0.90909090909090872756,1.81818181818181856535,1.36363636363636397952,0.00000000000000000000,0.00000000000000000000,0.68965517241379281632,0.86206896551724165878,1.89655172413793149389,2.75862068965516993302,3.27586206896551779266,0.51724137931034497306,0.00000000000000000000,0.00000000000000000000,14.00000000000000000000,0.02960185456017195432,0.01179005544638232067,-0.07238677681970813460,-0.16661142490998154253,-0.16055626933116740052,-0.08619075042432514100,-0.00813394984100388428,-0.01679031226927933662,0.04304540822193585192,0.11522877649112048259,0.21807921979332933748,0.29203102449622148074,0.35990127147288925036,0.40450053622556997324,0.44069924759401657433,0.48227759297924838178,0.51517590936995749651,0.55794308626554500741,0.60803681349233285047,0.65876969251012784667,0.71506645086118947319,0.74526982504985184175,0.80355153579282423415,0.83362710729432087930,0.91543708061342599080,0.21180122416252422646,0.76800000000000001599,0.22400000000000000466,0.54400000000000003908,0.10400000000000000910,0.05190908628868851071,0.29999999999999998890,-0.02726007275104880279,0.43599999999999999867,0.50818182964803404467,-0.00885164384572034724,0.21200000000000002176,0.33200000000000001732,1.96874951059331793068,0.29180683667932716396,0.70819316332067283604,0.13553988062940858228,0.39061313076505699282,0.56760716223548557391,0.27580032555615840995,0.43239283776451437058,0.22400000000000000466,0.29180683667932716396,0.44800000000000000933,0.58437330439500811963,0.67199999999999993072,0.87618014107433528359,1.99106002554278394001,0.12800000000000000266,0.16668475311991318155,0.22400000000000000466,0.29202387411828539809,0.35199999999999997957,0.45870862723819860740,1.75000000000000000000,0.08799999999999999489,0.11459576776994032099,0.10399999999999999523,0.13543136190992946521,0.19200000000000000400,0.25002712967986978621,1.18181818181818187874,2.33050359364167425369,9.70526036007269432559,15.89367379943052682734,7.03545937674725951894,12.03576395371436902337,22.92913317617778545809,0.17169301314030413486,0.82830698685969594841,0.69286042860264651644,0.30713957139735348356,0.34329997501766729151,0.65670002498233270849,0.40677470887752836814,0.52705961375638410438,0.00719235020402222980,-0.00489658840940981888,-0.00235418181819913030,-0.00326191810401821325,0.00237054249933615901,0.39786071907370806899,0.80552637502225987731,0.93079607727562585495,0.95172824666275479544,0.57919217385862475922,-0.68235386940156284030,-0.32856724724853730857,-0.45357626549255936066,0.32863548955143578878,2.05491340135019484592,2.36775116504155835884,2.43548359299671979272,1.47950953190975287299,0.05600000000000000117,0.07200000000000000844,0.05200000000000000455,0.06400000000000000133,0.13600000000000000977,0.07281606077048291548,0.09386869234943026608,0.06733586543678785064,0.08388497015735214835,0.17731958762886598779,0.16799999999999998268,0.09600000000000000200,-0.04399999999999999745,0.02000000000000000042,0.15599999999999999978,0.21899077590884427624,0.12512208355941401017,-0.05778621812262615259,0.02609875203472598881,0.20341833966359196273,-0.22884584621190201537,-0.00369038865713933011,0.09978964333953380117,0.00484307896440915042
30,30_2,173,90,,,,76.14213197969543500676,98.50000000000000000000,0.97778576381490567293,79.00000000000000000000,0.86795175494115350823,31.00000000000000000000,0.82699057241103035576,15.00000000000000000000,0.68207613594921734368,10.00000000000000000000,0.58332594309038765523,35.00000000000000000000,1.59090909090909082835,0.68181818181818176772,0.68181818181818154567,0.68181818181818198976,1.36363636363636397952,0.86206896551724132571,1.89655172413793104980,1.72413793103448220734,1.03448275862068994613,1.03448275862068994613,0.86206896551724065958,0.51724137931034497306,0.34482758620689663021,0.51724137931034497306,1.20689655172413812245,22.00000000000000000000,0.00000000000000000000,0.90909090909090906063,1.59090909090909016221,1.13636363636363668661,1.36363636363636397952,1.03448275862068972408,1.03448275862068972408,4.65517241379310142690,3.27586206896551779266,0.00000000000000000000,0.00000000000000000000,0.00000000000000000000,0.00000000000000000000,0.00000000000000000000,0.00000000000000000000,12.00000000000000000000,1.59090909090909082835,0.22727272727272726516,0.68181818181818154567,1.59090909090909127244,0.90909090909090928267,0.00000000000000000000,0.17241379310344828735,1.20689655172413745632,3.10344827586206939429,3.79310344827586298777,1.03448275862068883590,0.51724137931034497306,0.17241379310344831510,0.00000000000000000000,0.00000000000000000000,8.00000000000000000000,0.00000000000000000000,1.59090909090909082835,0.45454545454545436378,2.04545454545454585826,0.90909090909090928267,0.00000000000000000000,0.00000000000000000000,0.00000000000000000000,0.00000000000000000000,1.37931034482758652082,4.48275862068965125218,3.10344827586206939429,0.51724137931034497306,0.17241379310344831510,0.34482758620689663021,34.00000000000000000000,0.45454545454545453032,3.18181818181818165669,1.13636363636363602048,0.22727272727272732067,0.00000000000000000000,0.00000000000000000000,0.68965517241379314939,1.55172413793103403101,2.41379310344827624490,2.75862068965517304164,2.06896551724137767181,0.34482758620689663021,0.00000000000000000000,0.00000000000000000000,0.17241379310344831510,79.00000000000000000000,0.03097525470801934522,0.03103178290340496970,-0.02549764025789163016,-0.13737472640653883293,-0.16331625763005874763,-0.08963603268189587747,-0.00820124410210449663,-0.02002512487865702392,0.04179522231139904537,0.13986794166388719085,0.24056571863192732774,0.29235767816960600562,0.33282225293586331638,0.37478821976620285694,0.41780723325452695516,0.48053362218774292591,0.53835248043661199091,0.57540688806193363014,0.61216968770503887853,0.64001429744865423466,0.66258462909423965215,0.69980569531423730822,0.73006201942120796389,0.76991394769284182686,0.83053375023016196010,0.22478756341202504876,0.90800000000000002931,0.30799999999999999600,0.59999999999999997780,0.18800000000000000044,0.06591088705197650777,0.38400000000000000799,-0.03208465986057801311,0.48399999999999998579,0.54770027220728922934,-0.00745783508958966501,0.17599999999999998979,0.42400000000000004352,1.83153497001895915197,0.33078740157480313044,0.66921259842519686956,0.19673228346456692051,0.41409448818897642841,0.53059055118110243221,0.19980314960629921850,0.46940944881889762330,0.16799999999999998268,0.18980314960629923737,0.46799999999999997158,0.50633858267716536083,0.63600000000000000977,0.69614173228346465372,2.88215102974828374371,0.11999999999999999556,0.13405511811023620994,0.21599999999999999756,0.23704724409448818534,0.33599999999999996536,0.37110236220472442303,1.80000000000000026645,0.08799999999999999489,0.09830708661417322802,0.10000000000000000555,0.11118110236220471454,0.18800000000000000044,0.20948818897637794256,1.13636363636363624252,2.64192642740009731028,11.15303101588594003601,15.92991138681053442383,13.39003167983734421398,13.79495744328603734630,29.31994306664788041417,0.19053127720575707693,0.80946872279424297858,0.54442352483638767335,0.45557647516361232665,0.31951899008092771171,0.68048100991907223278,0.50623581782801241324,0.49988837200347113754,0.00709630709960245437,-0.00864599681087546701,0.00039292731673323811,-0.00697530379553495949,0.00777498518674613059,0.21393625458173351483,0.83058281229520136701,0.95788020124283979051,0.91491897909668917777,0.62480025859284760159,-1.66692230864490231745,-0.00726233348503446674,-1.17379935023882620015,1.35313965739626951290,5.17671422323760488382,6.14460571229347607414,5.86420297704161797014,4.11072354098540415634,0.04000000000000000083,0.17599999999999998979,0.09600000000000000200,0.03600000000000000422,0.08000000000000000167,0.04468503937007874127,0.18492125984251966964,0.10086614173228346247,0.04287401574803149928,0.09149606299212598159,0.26800000000000001599,0.09199999999999999845,0.00400000000000000008,0.04000000000000000083,0.11999999999999999556,0.28610236220472440305,0.10118110236220473341,-0.00031496062992126053,0.04255905511811023528,0.13405511811023620994,-1.83900028231731105244,-0.00406687682463125529,-0.48586062492104159505,0.01127932548595165368
30,30_3,173,90,,,,74.25742574257425587803,101.00000000000000000000,0.97995943490925141450,0.00000000000000000000,0.88542709559941867870,29.00000000000000000000,0.83696174104355613999,14.00000000000000000000,0.82312177159380017777,10.00000000000000000000,0.66729129971217815420,5.00000000000000000000,2.08333333333333348136,0.41666666666666668517,0.41666666666666651864,0.62500000000000011102,1.45833333333333370341,0.71428571428571430157,2.85714285714285720630,1.42857142857142815906,0.89285714285714312677,1.07142857142857161890,0.71428571428571363544,0.35714285714285720630,0.35714285714285720630,0.35714285714285720630,1.25000000000000022204,24.00000000000000000000,0.00000000000000000000,1.45833333333333325932,1.04166666666666629659,1.04166666666666696273,1.45833333333333370341,1.07142857142857139685,0.89285714285714290472,3.74999999999999911182,4.28571428571428647558,0.00000000000000000000,0.00000000000000000000,0.00000000000000000000,0.00000000000000000000,0.00000000000000000000,0.00000000000000000000,13.00000000000000000000,1.45833333333333325932,0.62500000000000000000,0.83333333333333303727,1.04166666666666696273,1.04166666666666696273,0.00000000000000000000,0.00000000000000000000,1.60714285714285654016,1.07142857142857161890,4.64285714285714412597,1.96428571428571241420,0.71428571428571441260,0.00000000000000000000,0.00000000000000000000,0.00000000000000000000,9.00000000000000000000,1.04166666666666674068,0.41666666666666668517,0.83333333333333303727,1.66666666666666696273,1.04166666666666696273,0.00000000000000000000,0.00000000000000000000,0.00000000000000000000,0.35714285714285720630,0.89285714285714312677,3.74999999999999644729,3.57142857142857250707,0.89285714285714312677,0.00000000000000000000,0.53571428571428580945,34.00000000000000000000,0.20833333333333334259,0.62500000000000000000,2.49999999999999911182,1.25000000000000022204,0.41666666666666674068,0.00000000000000000000,0.35714285714285715079,0.35714285714285703977,1.78571428571428625354,2.32142857142857206298,3.03571428571428336696,1.60714285714285742834,0.53571428571428580945,0.00000000000000000000,0.00000000000000000000,4.00000000000000000000,0.06514797333176286509,0.07586148264664865914,-0.00265057613691511290,-0.14297036176143093633,-0.17336533448187468887,-0.08926205064627962260,-0.00738737121735564065,-0.02352292324786394578,0.05317115915821138405,0.16725500632779879973,0.28462053071748866229,0.35205220662686798061,0.40791464555147555204,0.44574994851692739672,0.48262533094925486044,0.54064851216323817074,0.59888843898387800202,0.64395100757244383427,0.67465747525236929860,0.70219117811363718218,0.71099155253346324468,0.74207097993124571111,0.75532445150129190470,0.76459298820132448604,0.83708371585882623833,0.17630486473474030196,0.81600000000000005862,0.21199999999999999400,0.60399999999999998135,0.08799999999999999489,0.06947331281268037673,0.26400000000000001243,-0.02124342601724243940,0.33200000000000001732,0.67664857278689494180,-0.00239334447913680526,0.11999999999999999556,0.48399999999999998579,1.63863883243432262304,0.25980769230769229505,0.74019230769230770495,0.10788461538461538436,0.32250000000000000888,0.40442307692307694067,0.14461538461538461786,0.59557692307692300382,0.14799999999999999267,0.18134615384615382361,0.36399999999999999023,0.44615384615384612310,0.51200000000000001066,0.62749999999999994671,2.46052631578947345048,0.11599999999999999201,0.14211538461538461564,0.17599999999999998979,0.21576923076923076872,0.29199999999999998179,0.35788461538461535660,1.51904761904761897995,0.08399999999999999134,0.10288461538461537992,0.09600000000000000200,0.11769230769230769329,0.17999999999999999334,0.22057692307692305933,1.14545454545454550299,1.02595925540777943574,10.68019135015130949284,8.90653559439612685367,16.67344358079541066786,11.70615060555908826245,25.57997917519153574517,0.08755160574216577785,0.91244839425783419440,0.37103238919162817577,0.62896761080837182423,0.31460378831601232275,0.68539621168398767725,0.57420273402328592116,0.51724197793763793118,0.00647488438334047067,-0.00723006922566060695,0.00089189218069352094,-0.00687735481077678124,0.00798281232430708698,0.06962566337066875000,0.76468952552492286401,0.94081376027785768024,0.84422068018295215452,0.49893977150862978132,-1.14389825687946622423,0.13053752743925373103,-1.05499069050705829298,1.29165813846030896883,19.43000065632332606924,25.62348237931553285307,22.97814595754245914350,12.70288315157269565248,0.00400000000000000008,0.11199999999999998845,0.07599999999999999811,0.07599999999999999811,0.09600000000000000200,0.00480769230769230796,0.13711538461538461120,0.09403846153846154299,0.09249999999999999889,0.11826923076923076539,0.20799999999999999045,0.09600000000000000200,-0.02000000000000000042,0.05600000000000000117,0.15199999999999999623,0.25500000000000000444,0.11788461538461539324,-0.02384615384615384678,0.06865384615384614864,0.18692307692307691402,-1.51110323227197085316,-0.00411787458075803942,-0.21944509381166160678,0.02287348392635162389
30,30_1,173,90,,,,76.53061224489795222325,98.00000000000000000000,0.97927446888301561412,79.00000000000000000000,0.87440119026269580438,30.00000000000000000000,0.84694362906131359647,14.00000000000000000000,0.69176178317429615205,10.00000000000000000000,0.72235805935654884280,5.00000000000000000000,0.26315789473684209065,1.57894736842105265495,0.78947368421052599441,0.52631578947368429233,1.84210526315789513419,0.81967213114754100545,1.80327868852459016757,1.63934426229508156680,1.14754098360655754085,1.14754098360655754085,0.81967213114754033931,0.49180327868852469209,0.49180327868852469209,0.32786885245901642438,1.31147540983606569753,19.00000000000000000000,0.00000000000000000000,0.26315789473684209065,1.57894736842105198882,1.05263157894736858466,2.10526315789473716933,0.65573770491803273774,1.96721311475409832425,2.13114754098360581480,5.08196721311475485550,0.16393442622950821219,0.00000000000000000000,0.00000000000000000000,0.00000000000000000000,0.00000000000000000000,0.00000000000000000000,10.00000000000000000000,1.84210526315789469010,0.26315789473684209065,0.26315789473684203514,1.31578947368421084185,1.31578947368421084185,0.00000000000000000000,0.16393442622950818444,1.31147540983606503140,0.16393442622950821219,5.90163934426229630503,1.63934426229508067863,0.81967213114754122749,0.00000000000000000000,0.00000000000000000000,0.00000000000000000000,5.00000000000000000000,1.05263157894736836262,0.78947368421052632748,0.52631578947368407029,1.31578947368421084185,1.31578947368421084185,0.00000000000000000000,0.00000000000000000000,0.00000000000000000000,0.16393442622950821219,3.27868852459016490997,3.60655737704917722652,1.47540983606557407626,0.98360655737704938417,0.49180327868852469209,0.00000000000000000000,3.00000000000000000000,0.00000000000000000000,0.52631578947368418131,1.31578947368421017572,2.36842105263157920447,0.78947368421052654952,0.00000000000000000000,0.00000000000000000000,0.32786885245901625785,0.81967213114754122749,1.80327868852459061166,3.77049180327868516116,2.78688524590163977379,0.32786885245901642438,0.16393442622950821219,0.00000000000000000000,13.00000000000000000000,-0.01327160136217767766,-0.05313358121082180363,-0.13293722244939784605,-0.20807193271541329915,-0.19542648131426398894,-0.10899098847653748701,-0.01354755608721417218,-0.02781539037799912739,0.01292393513974005731,0.11298189895506274838,0.20939346989075774408,0.28605276389993050667,0.32558177584324921039,0.35619003953693151310,0.38445521757169265342,0.43597436168949676993,0.48321237531773125751,0.53860173944280942404,0.58320890759500065847,0.62303872352499456433,0.64574805440203530971,0.68038565987749799469,0.70859220024341473820,0.75477887733422033278,0.80205473594847531693,0.21052775629124409473,0.94799999999999995381,0.32400000000000001021,0.62399999999999999911,0.20799999999999999045,0.04951874812174306140,0.40400000000000002576,-0.02584315661930414176,0.54000000000000003553,0.57937465010969257939,-0.00669583537426138298,0.21599999999999999756,0.40800000000000002931,1.73399295155213306607,0.33653571428571427138,0.66346428571428561760,0.21403571428571427360,0.42117857142857140218,0.56692857142857144837,0.23039285714285714923,0.43307142857142855163,0.32400000000000001021,0.33653571428571427138,0.51600000000000001421,0.54339285714285723294,0.83999999999999996891,0.87992857142857139330,1.74074074074074069962,0.14000000000000001332,0.14789285714285713147,0.29600000000000004086,0.31178571428571427715,0.43599999999999999867,0.45967857142857143637,2.11111111111111116045,0.09600000000000000200,0.10110714285714285376,0.11200000000000000233,0.11849999999999999423,0.20800000000000001821,0.21960714285714286187,1.17482517482517478946,3.51606601622449232991,9.78162011924242769112,16.92678563295116234144,10.88685747189624919429,13.29768613546691824467,27.81364310484740798302,0.24532527772771497987,0.75467472227228515891,0.60270063123030603869,0.39729936876969396131,0.32792306981753471806,0.67207693018246528194,0.49290536512046628781,0.46991669763926291470,0.00201715865164406316,-0.00588849913474914777,-0.00107902555993255600,-0.00394927344527101765,0.00336848583205140439,0.36294554753891528076,0.89634609029147782611,0.98544065641431388691,0.92953633236908639326,0.64292005857353751175,-3.09752765342684277527,-0.52723661424714673984,-1.97803280084895893864,1.73149227680104722538,2.49353629651405039880,2.74575555609790322720,2.59455802131793866749,1.79565163692704921061,0.00000000000000000000,0.23600000000000001532,0.08799999999999999489,0.04000000000000000083,0.10799999999999999878,0.00000000000000000000,0.24389285714285713347,0.09357142857142856929,0.04232142857142857234,0.11403571428571429580,0.32400000000000001021,0.08799999999999999489,0.00000000000000000000,0.04000000000000000083,0.14800000000000002043,0.33653571428571427138,0.09264285714285713791,0.00092857142857142791,0.04324999999999999678,0.15728571428571430646,-2.32375051513178387808,-0.00314746596262218412,-0.59225823833073687474,0.01503662543874165550
43,43_3,141,72,,,,90.36144578313253816759,83.00000000000000000000,0.97393120883385486675,74.00000000000000000000,0.85305975761284558168,32.00000000000000000000,0.70170081588674870776,15.00000000000000000000,0.86834589138985152079,9.00000000000000000000,0.56125488000056744653,5.00000000000000000000,1.29629629629629627985,0.55555555555555558023,0.37037037037037023879,0.55555555555555569125,2.22222222222222276500,1.32075471698113200425,1.13207547169811317822,1.13207547169811273413,1.32075471698113244834,0.56603773584905670013,0.94339622641509357504,0.75471698113207563718,0.94339622641509457424,0.56603773584905670013,1.32075471698113244834,27.00000000000000000000,0.37037037037037034981,1.66666666666666674068,0.74074074074074047758,0.74074074074074092167,1.48148148148148184333,3.20754716981132093068,6.60377358490566024329,0.18867924528301879827,0.00000000000000000000,0.00000000000000000000,0.00000000000000000000,0.00000000000000000000,0.00000000000000000000,0.00000000000000000000,0.00000000000000000000,10.00000000000000000000,1.66666666666666674068,1.11111111111111116045,0.37037037037037023879,0.74074074074074092167,1.11111111111111138250,0.00000000000000000000,0.00000000000000000000,0.94339622641509401912,1.13207547169811340027,5.66037735849056744541,2.26415094339622458008,0.00000000000000000000,0.00000000000000000000,0.00000000000000000000,0.00000000000000000000,5.00000000000000000000,0.37037037037037034981,0.74074074074074069962,1.11111111111111071637,0.92592592592592615208,1.85185185185185230416,0.00000000000000000000,0.00000000000000000000,0.00000000000000000000,0.00000000000000000000,0.94339622641509457424,3.39622641509433620399,2.64150943396226489668,2.45283018867924562656,0.56603773584905670013,0.00000000000000000000,2.00000000000000000000,0.18518518518518517491,0.92592592592592593004,1.48148148148148095515,1.29629629629629650189,1.11111111111111138250,0.00000000000000000000,0.18867924528301888154,0.18867924528301879827,0.94339622641509457424,1.88679245283018914847,3.20754716981131826614,2.07547169811320797450,0.94339622641509457424,0.56603773584905670013,0.00000000000000000000,14.00000000000000000000,0.05631415845471857140,0.01604086778383521580,-0.11747754780370629757,-0.21882355800941777346,-0.18869480412908012923,-0.08788068084556616144,-0.00601733138549920537,-0.01946787368322850861,-0.00595386165539689687,0.01516684261513121662,0.06357411546887387077,0.10856821282101632165,0.14884510738260445240,0.18976146202405796970,0.22020317016690715839,0.25362415982853864227,0.32093326330947807845,0.38745793732066191595,0.43674911674691235808,0.46184788485089006693,0.49887046792239569948,0.53651862454410048642,0.58194665703342185470,0.64068519203586649091,0.69544513467471080759,0.21749306567054726980,0.63200000000000000622,0.18399999999999999689,0.44800000000000000933,0.06800000000000000488,0.07557250671463364156,0.22399999999999997691,-0.01990280357657242538,0.25600000000000000533,0.79139475078081900072,-0.01071658969451477761,0.07199999999999999456,0.37600000000000000089,1.19310236090061683178,0.28828828828828828579,0.71171171171171176972,0.10601673101673102229,0.34861647361647363219,0.39945302445302444116,0.11116473616473616925,0.60054697554697544781,0.12399999999999999911,0.19578507078507079164,0.30799999999999999600,0.49131274131274127459,0.43199999999999999512,0.68709781209781206623,2.52310924369747890950,0.10000000000000000555,0.15765765765765765716,0.20800000000000001821,0.33204633204633204890,0.30799999999999999600,0.48970398970398965055,2.12987012987012969134,0.06800000000000000488,0.10682110682110682043,0.10400000000000000910,0.16602316602316602445,0.17199999999999998623,0.27284427284427281712,1.60000000000000008882,0.73259077856009913177,9.66538750898915921539,6.99940107714118653348,17.07919843803589188269,10.39797828754925745898,24.07859951517708196889,0.07515654284464939883,0.92484345715535054566,0.29219470428554605856,0.70780529571445394144,0.30000548169430696355,0.69999451830569303645,0.08411075493395210601,0.61295366634430314967,0.01048636307278335775,-0.00894835619976908081,0.00282550414466303801,-0.00646940773359966359,0.00667883252142448258,0.09862039086715355951,0.61941408720957347178,0.90816571703657900105,0.86286178085797948789,0.61379100844580636309,-1.18549636389845836071,0.55402374181359537175,-1.14129880580034015480,1.02705550300303682931,43.07905801905107523453,78.11807691697920574825,74.20948142324638752143,57.28845272563818014078,0.00400000000000000008,0.08000000000000000167,0.09199999999999999845,0.05200000000000000455,0.08399999999999999134,0.00675675675675675713,0.12548262548262548166,0.14575289575289573918,0.08140283140283140206,0.13545688545688544524,0.17999999999999999334,0.10000000000000000555,-0.00800000000000000017,0.04399999999999999745,0.12800000000000000266,0.28153153153153154253,0.15604890604890603312,-0.01029601029601029394,0.07110682110682110812,0.20656370656370656724,-1.62527680291475062901,-0.00443168413591333611,-0.59822129991171368868,0.00719989324385880355
43,43_1,141,72,,,,97.40259740259740794954,77.00000000000000000000,0.97241397898766490648,78.00000000000000000000,0.90418385493687392085,29.00000000000000000000,0.86812303532992540767,12.00000000000000000000,0.85270081004936970626,6.00000000000000000000,0.71608042186200560053,2.00000000000000000000,1.52173913043478270524,0.65217391304347827052,0.43478260869565199531,0.65217391304347838155,1.73913043478260909147,1.40350877192982448349,1.40350877192982448349,1.05263157894736814058,1.22807017543859675612,1.05263157894736858466,0.87719298245613963605,0.52631578947368429233,0.70175438596491235277,0.52631578947368429233,1.22807017543859675612,23.00000000000000000000,0.00000000000000000000,0.65217391304347827052,1.08695652173913015481,1.52173913043478292728,1.73913043478260909147,1.92982456140350877583,5.96491228070175427689,1.57894736842105221086,0.35087719298245617638,0.17543859649122808819,0.00000000000000000000,0.00000000000000000000,0.00000000000000000000,0.00000000000000000000,0.00000000000000000000,10.00000000000000000000,2.17391304347826075372,0.43478260869565216185,0.21739130434782599766,0.86956521739130454574,1.30434782608695676309,0.00000000000000000000,0.87719298245614030218,0.70175438596491201970,0.87719298245614063525,5.08771929824561475186,2.10526315789473494888,0.35087719298245617638,0.00000000000000000000,0.00000000000000000000,0.00000000000000000000,5.00000000000000000000,1.30434782608695654105,0.65217391304347827052,1.30434782608695609696,1.52173913043478292728,0.21739130434782613643,0.00000000000000000000,0.00000000000000000000,0.00000000000000000000,0.17543859649122808819,0.70175438596491235277,2.28070175438596312034,4.56140350877193068158,1.57894736842105287700,0.35087719298245617638,0.35087719298245617638,79.00000000000000000000,0.21739130434782608092,0.65217391304347827052,1.52173913043478203910,1.30434782608695676309,1.30434782608695676309,0.00000000000000000000,0.00000000000000000000,0.35087719298245600985,1.05263157894736858466,1.22807017543859675612,3.50877192982455854420,1.92982456140350921991,1.92982456140350921991,0.00000000000000000000,0.00000000000000000000,16.00000000000000000000,0.04279322649919292676,0.00902528245382733067,-0.10506804700510304074,-0.19908265768142163754,-0.17773219170218243490,-0.08585380259591078589,-0.01072334001140237171,-0.04335169788183908940,-0.01628683431170050225,0.02947937203952462684,0.08733772968214625898,0.14362927945753764525,0.19549184770391495047,0.24780405291412713198,0.30122522561366588123,0.34085374911251326013,0.38144650363901527745,0.41786491230610661729,0.48289392246063161940,0.55092759190677120795,0.60919595534971027195,0.66119443021290658091,0.71292461775922866263,0.74685527026907616577,0.83100846236659953181,0.23662979782410759055,0.63200000000000000622,0.18666666666666667518,0.44533333333333335879,0.07200000000000000844,0.06660360583035705717,0.22133333333333335413,-0.01962949637577471318,0.30399999999999999245,0.70235912750544671201,-0.00842051227782869560,0.11733333333333333115,0.32800000000000001377,1.47834259640883058928,0.29544249702477548558,0.70455750297522445891,0.11388212701503841462,0.35030293194850159466,0.48144541815427888132,0.18600292112950342349,0.51855458184572100766,0.16533333333333333215,0.26168722276317213371,0.38399999999999995248,0.60856458941901980797,0.54933333333333334014,0.87025181218219194168,2.38243044253274449673,0.11466666666666665286,0.18150762739370338017,0.23199999999999998401,0.36760521475711344097,0.34666666666666667851,0.54911284215081679339,2.02222222222222214327,0.08266666666666666607,0.13086930650221789696,0.11199999999999998845,0.17728551336146272654,0.19466666666666668228,0.30815481986368065126,1.36060606060606059664,1.23641076628191370901,8.96259714781250416138,8.57288279011073051095,13.19604913687211045215,10.19900791409441787039,21.76893192698284096309,0.10590037955742720444,0.89409962044257274005,0.45155669770273804131,0.54844330229726201420,0.32139270518018897560,0.67860729481981107991,0.11261676042506253703,0.57216979478486551525,0.01032182767397655555,-0.00798153952473175908,-0.00005378001987510483,-0.00730558641642305596,0.00563225409308791124,0.27214025704546562778,0.70573122780425057154,0.94877199463017125591,0.91222901799296474135,0.67671960806474729111,-0.87568823303712528539,0.05389612445737173435,-0.86654619807114652286,0.67957408006705799508,3.14985010808803167492,4.49511221433488383781,4.34879173104837146724,3.30766499121101675840,0.01600000000000000033,0.06666666666666666574,0.09333333333333333759,0.04266666666666666524,0.08000000000000000167,0.02532051282051282423,0.10538786108406361652,0.14747917342854052758,0.06789327058314399699,0.12638212701503839797,0.17066666666666666097,0.10399999999999999523,-0.01066666666666666631,0.03200000000000000067,0.11200000000000000233,0.27012198420426264400,0.16473412312019905523,-0.01725494969165855541,0.05063832089148545545,0.17702044790652385342,-0.74261223949040855441,-0.00443595817435266451,-0.06303815942335043443,0.00821450500499509850
47,47_1,133,76,,,,82.41758241758242320429,91.00000000000000000000,0.97460219123965496912,1.00000000000000000000,0.85444487551689063398,32.00000000000000000000,0.82010053419280770637,15.00000000000000000000,0.72746336437846714773,10.00000000000000000000,0.73210126444673406798,4.00000000000000000000,1.57894736842105265495,0.52631578947368418131,0.52631578947368407029,0.78947368421052654952,1.57894736842105309904,0.00000000000000000000,0.00000000000000000000,0.32786885245901625785,3.77049180327868960205,1.31147540983606569753,1.47540983606557229990,0.65573770491803284877,0.49180327868852469209,0.65573770491803284877,1.31147540983606569753,19.00000000000000000000,0.00000000000000000000,1.31578947368421061981,1.05263157894736814058,0.78947368421052654952,1.84210526315789513419,1.80327868852459016757,1.47540983606557385421,3.60655737704917900288,3.11475409836065608715,0.00000000000000000000,0.00000000000000000000,0.00000000000000000000,0.00000000000000000000,0.00000000000000000000,0.00000000000000000000,9.00000000000000000000,1.84210526315789469010,0.52631578947368418131,0.26315789473684203514,0.78947368421052654952,1.57894736842105309904,0.00000000000000000000,0.00000000000000000000,0.49180327868852441453,1.14754098360655754085,1.96721311475409876834,4.75409836065573276898,1.63934426229508245498,0.00000000000000000000,0.00000000000000000000,0.00000000000000000000,5.00000000000000000000,1.31578947368421061981,0.52631578947368418131,0.78947368421052599441,2.10526315789473716933,0.26315789473684214617,0.00000000000000000000,0.00000000000000000000,0.00000000000000000000,0.00000000000000000000,0.81967213114754122749,2.78688524590163710926,4.26229508196721429414,0.98360655737704938417,1.14754098360655754085,0.00000000000000000000,78.00000000000000000000,1.31578947368421061981,1.31578947368421061981,2.10526315789473628115,0.26315789473684214617,0.00000000000000000000,0.00000000000000000000,0.00000000000000000000,0.81967213114754078340,1.96721311475409876834,2.45901639344262346043,1.80327868852458861326,1.80327868852459061166,0.32786885245901642438,0.65573770491803284877,0.16393442622950821219,74.00000000000000000000,0.01039211786918795878,-0.05234417299628233572,-0.17520434276371260607,-0.27254035556002836893,-0.24810307493453134797,-0.13397880145105467431,-0.00501896587732452229,-0.00105474066932520743,0.01901477139110045039,0.08224153299645194093,0.17020744968134396413,0.24228430757516505878,0.29628216646704019777,0.32732094150009188871,0.33286832796225546138,0.35764122090426686551,0.38647850147716888980,0.43360253852198749058,0.47426288345860506679,0.49454567562003703962,0.50841880849864640179,0.52357665947146803109,0.53954276491332786581,0.51879635069004870207,0.51604080879195968201,0.37722817863434698893,0.76800000000000001599,0.19200000000000000400,0.57599999999999995648,0.07199999999999999456,0.08144002158904328770,0.30399999999999999245,-0.03341241807714345757,0.40799999999999997380,0.47144510499174757667,-0.00771104588729820684,0.21599999999999999756,0.35999999999999998668,2.12113773037743369443,0.25000000000000000000,0.75000000000000000000,0.09375000000000000000,0.39583333333333331483,0.53125000000000000000,0.28125000000000000000,0.46875000000000000000,0.12800000000000000266,0.16666666666666665741,0.35199999999999997957,0.45833333333333331483,0.47999999999999998224,0.62500000000000000000,2.75000000000000000000,0.10399999999999999523,0.13541666666666665741,0.19200000000000000400,0.25000000000000000000,0.29599999999999998535,0.38541666666666668517,1.84615384615384625633,0.08000000000000000167,0.10416666666666667129,0.10399999999999999523,0.13541666666666665741,0.18399999999999999689,0.23958333333333334259,1.30000000000000004441,0.74724066955600765283,11.16447335831782261550,19.86416197281230822114,10.46861643406628950004,11.91171402787383115651,30.33277840687859594482,0.06273158235728612531,0.93726841764271384694,0.65487446307614505248,0.34512553692385494752,0.28197081658092454370,0.71802918341907540078,0.35821536175178686490,0.56882758257609422614,0.01370672428082123431,-0.00835427351985185140,-0.00163536422192045450,-0.00543156930598953647,0.00577612850855524496,0.06141769347423508413,0.81409249487232160369,0.98403809397916874868,0.95402519828659970713,0.63676853759599383320,-0.60950182907971262036,-0.11931109055784348827,-0.39627041404703194916,0.42140838250006512622,13.25501575883561855562,16.02206202015671365757,15.53339346237116913585,10.36783541640358485836,0.01600000000000000033,0.08799999999999999489,0.09600000000000000200,0.01600000000000000033,0.10399999999999999523,0.02083333333333333218,0.11458333333333332871,0.12500000000000000000,0.02083333333333333218,0.13541666666666665741,0.17599999999999998979,0.08799999999999999489,0.00800000000000000017,0.02400000000000000050,0.12800000000000000266,0.22916666666666665741,0.11458333333333332871,0.01041666666666666609,0.03125000000000000000,0.16666666666666665741,-0.51532870697490240630,-0.00526473194971865174,-0.09392032447483723845,0.00322712267357467587
47,47_2,133,76,,,,82.41758241758242320429,91.00000000000000000000,0.97628724927132526368,79.00000000000000000000,0.81759239728254406998,32.00000000000000000000,0.74664799745970922284,15.00000000000000000000,0.73335203885378241750,11.00000000000000000000,0.65828636816115992936,5.00000000000000000000,1.38888888888888883955,0.55555555555555558023,0.55555555555555535818,0.83333333333333348136,1.66666666666666696273,0.48387096774193549820,2.25806451612903247295,1.45161290322580605050,0.96774193548387121844,1.77419354838709719679,0.64516129032258007214,0.32258064516129036914,0.32258064516129036914,0.48387096774193560922,1.29032258064516147655,18.00000000000000000000,0.00000000000000000000,0.83333333333333337034,1.11111111111111071637,1.38888888888888928363,1.66666666666666696273,1.29032258064516125451,0.96774193548387099639,6.61290322580645018036,1.12903225806451645852,0.00000000000000000000,0.00000000000000000000,0.00000000000000000000,0.00000000000000000000,0.00000000000000000000,0.00000000000000000000,9.00000000000000000000,1.94444444444444441977,0.27777777777777779011,0.27777777777777767909,1.11111111111111138250,1.38888888888888928363,0.00000000000000000000,0.00000000000000000000,0.64516129032258040521,3.70967741935483941162,3.87096774193548487375,1.12903225806451512625,0.64516129032258073828,0.00000000000000000000,0.00000000000000000000,0.00000000000000000000,5.00000000000000000000,1.38888888888888883955,0.55555555555555558023,0.27777777777777767909,1.66666666666666696273,1.11111111111111138250,0.00000000000000000000,0.00000000000000000000,0.00000000000000000000,0.96774193548387121844,2.74193548387096841523,3.87096774193548087695,1.45161290322580671663,0.64516129032258073828,0.32258064516129036914,0.00000000000000000000,1.00000000000000000000,0.55555555555555558023,0.83333333333333337034,1.11111111111111071637,1.66666666666666696273,0.83333333333333348136,0.00000000000000000000,0.00000000000000000000,0.00000000000000000000,1.12903225806451645852,3.87096774193548487375,2.74193548387096530661,1.45161290322580671663,0.48387096774193560922,0.32258064516129036914,0.00000000000000000000,13.00000000000000000000,0.00421874045612971853,-0.04139355253396464346,-0.16906181908673745262,-0.27299953838705132148,-0.25671666772118489908,-0.15818966838584391787,-0.02111789463870355349,-0.03002035096712090886,0.00745907211238842557,0.10179444576769168529,0.22825720143360031522,0.31614140237188803617,0.35401401700965062780,0.38877389761224723230,0.38962032148970460188,0.41549850272299815312,0.47067163011177914900,0.52230660425826402893,0.56012415103879176215,0.61135837242291790616,0.65396718547761278906,0.70837973215901262058,0.74682834424864408263,0.75098889339568586365,0.78005936673948594873,0.24377001028261349735,0.78000000000000002665,0.17999999999999999334,0.59999999999999997780,0.07999999999999998779,0.07694342603083831333,0.27200000000000001954,-0.03708348576237113781,0.41600000000000003642,0.46321297246513704060,-0.00044755273125668404,0.23599999999999998757,0.36399999999999999023,2.12091436624480111917,0.23059120555438672451,0.76940879444561338651,0.10251420155691143288,0.34867452135493370857,0.53324216284451919634,0.30265095729013252734,0.46675783715548074815,0.13600000000000000977,0.17425836313907006048,0.47200000000000003064,0.60467073427309059319,0.60799999999999998490,0.77892909741216076469,3.45614035087719306816,0.10399999999999999523,0.13323164317273300528,0.20000000000000001110,0.25641699978960652562,0.30399999999999999245,0.38964864296233958640,1.96969696969696972388,0.08000000000000000167,0.10246160319798022775,0.10000000000000000555,0.12828739743320008437,0.17999999999999999334,0.23074900063118031213,1.33333333333333325932,1.71807769842278168504,9.04890068393951807479,18.84148300524035590797,9.53865410334831054229,10.76697838236229998188,28.38013710858866645026,0.16435705886340432058,0.83564294113659554064,0.66177702307113539515,0.33822297692886471587,0.27859489166162815232,0.72140510833837190319,0.47294847929721134383,0.51179655140622815068,0.01375540720530112060,-0.01112596431135859376,0.00087901183981675679,-0.00667375957902205386,0.00586300396634734100,0.24152953608239652317,0.86312084841306968563,0.96052270150204543953,0.80910631522550235939,0.46620901439666706523,-0.81518391663009359682,0.06377798315106206206,-0.48421298598391870893,0.42854120225373382169,3.59925019145111857455,4.00332389655768849934,3.36082555982332387146,1.94103182914694705197,0.02000000000000000042,0.07999999999999998779,0.08399999999999999134,0.06800000000000000488,0.14000000000000001332,0.02551020408163265363,0.10261939827477382925,0.10777403745003155677,0.08715548074900063280,0.17936040395539659675,0.16000000000000000333,0.08000000000000000167,0.00400000000000000008,0.07200000000000000844,0.21199999999999999400,0.20508100147275404312,0.10246160319798022775,0.00531243425205133596,0.09246791500105197570,0.27182831895644854470,-0.82329011605097068838,-0.00431913819726856794,-0.39474891379723686669,0.04130037544712562153
47,47_3,133,76,,,,78.53403141361256700748,95.50000000000000000000,0.96002701420010616573,2.00000000000000000000,0.82967220334696933914,35.00000000000000000000,0.77716753219279643972,17.00000000000000000000,0.77634148880066400356,12.00000000000000000000,0.63992850158205660804,10.00000000000000000000,1.94444444444444441977,0.55555555555555558023,0.55555555555555535818,0.55555555555555569125,1.38888888888888928363,1.77419354838709675271,1.29032258064516125451,0.64516129032258040521,0.96774193548387121844,2.25806451612903291704,0.32258064516129003607,0.32258064516129036914,0.48387096774193560922,0.48387096774193560922,1.45161290322580671663,18.00000000000000000000,0.00000000000000000000,1.38888888888888883955,1.11111111111111071637,0.55555555555555569125,1.94444444444444486386,1.45161290322580649459,2.41935483870967749098,4.67741935483870818757,1.45161290322580671663,0.00000000000000000000,0.00000000000000000000,0.00000000000000000000,0.00000000000000000000,0.00000000000000000000,0.00000000000000000000,10.00000000000000000000,1.66666666666666674068,0.27777777777777779011,0.55555555555555535818,1.11111111111111138250,1.38888888888888928363,0.00000000000000000000,0.16129032258064515681,0.16129032258064510130,2.25806451612903291704,5.48387096774193683046,0.96774193548387021924,0.96774193548387121844,0.00000000000000000000,0.00000000000000000000,0.00000000000000000000,6.00000000000000000000,0.83333333333333337034,0.55555555555555558023,0.55555555555555535818,0.55555555555555569125,2.50000000000000044409,0.00000000000000000000,0.00000000000000000000,0.00000000000000000000,0.00000000000000000000,0.16129032258064518457,1.29032258064516014429,4.51612903225806583407,2.90322580645161343327,0.80645161290322608938,0.32258064516129036914,4.00000000000000000000,0.83333333333333337034,0.55555555555555558023,1.11111111111111071637,1.94444444444444486386,0.55555555555555569125,0.00000000000000000000,0.00000000000000000000,0.00000000000000000000,1.29032258064516147655,2.58064516129032295311,2.74193548387096530661,2.90322580645161343327,0.48387096774193560922,0.00000000000000000000,0.00000000000000000000,14.00000000000000000000,-0.00343330885428798013,-0.01991807306977518011,-0.11731418811154029069,-0.22534462890860104678,-0.26309279635954574417,-0.17410846191974022057,-0.01680817047316814083,-0.03510043122578138108,-0.03387634928342839885,0.01238042931407857747,0.10712172057017546600,0.26021978895614578109,0.36236551899553404166,0.39841517293130668254,0.37005785437138793981,0.36275265551090640770,0.37724084653770556530,0.43617502114877104713,0.50574971165130833128,0.62162997753754645203,0.70775133108098486900,0.78167016713813630702,0.81243134641999303902,0.85194934058041016378,0.86524112961143639922,0.29490041996547966541,0.78000000000000002665,0.17199999999999998623,0.60799999999999998490,0.08799999999999999489,0.10001472000683042651,0.31600000000000000311,-0.04119951307471014790,0.41999999999999998446,0.43864831013311267327,0.00534840399630245877,0.24799999999999999822,0.35999999999999998668,2.28394650000128152101,0.22061301874868338713,0.77938698125131655736,0.11222877606909627268,0.40509795660417102781,0.53934063619127869948,0.31872761744259531236,0.46065936380872130052,0.09600000000000000200,0.12323572782810195136,0.39600000000000001865,0.50816305034758801895,0.49199999999999999289,0.63139877817568990093,4.12500000000000000000,0.07599999999999999811,0.09774594480724668744,0.17999999999999999334,0.23088266273435853471,0.25600000000000000533,0.32862860754160522214,2.37777777777777776791,0.05600000000000000117,0.07188750789972614408,0.12800000000000000266,0.16431430377080261107,0.18399999999999999689,0.23620181167052875515,2.28571428571428558740,1.12049169708071683083,7.52840865967947792115,22.01408855594134550415,9.82487704147233209540,8.64890035676019408584,31.83896559741367582319,0.13170207144667994692,0.86829792855332010859,0.69171766136931900348,0.30828233863068099652,0.21365248955639071227,0.78634751044360928773,0.40995723627447411275,0.54173880030753063242,0.01720473833413414810,-0.01411081554419912898,0.00079721676829713761,-0.00624231159387317325,0.00725412959269494673,0.26799594265508042135,0.79900101980568938309,0.94202791290443943506,0.80813328688676744349,0.48684755865374307326,-0.86135904113237760082,0.03747904186988985920,-0.35601438964200071702,0.43453959559284727199,2.98485375701649058300,3.55238304165279661362,3.03778634656550972082,1.81693563509930333666,0.05600000000000000117,0.04800000000000000100,0.10800000000000001266,0.05999999999999999778,0.07599999999999999811,0.07151885401306087853,0.06124921002738571707,0.13993048240994312992,0.07683800294923109897,0.09774594480724668744,0.11599999999999999201,0.06800000000000000488,0.04000000000000000083,0.10000000000000000555,0.17599999999999998979,0.14909416473562250860,0.08784495470823677765,0.05208552770170633839,0.12892353065093742348,0.22666947545818411092,-0.97736328895311408438,-0.00474121143093724808,-0.54282369336026681239,0.02721688062416533632
57,57_3,139,84,,,,107.14285714285715300775,70.00000000000000000000,0.97830512552968185158,75.00000000000000000000,0.92680171809324940480,33.00000000000000000000,0.89819853102857238891,15.00000000000000000000,0.80971919167646078108,7.00000000000000000000,0.79541214648419011901,2.00000000000000000000,1.53846153846153854694,0.57692307692307687184,0.57692307692307676081,0.57692307692307709388,1.73076923076923105960,1.48148148148148139924,1.85185185185185186008,1.85185185185185141599,1.11111111111111138250,0.55555555555555569125,0.37037037037037001674,0.37037037037037046083,0.55555555555555569125,0.55555555555555569125,1.29629629629629650189,26.00000000000000000000,0.00000000000000000000,0.38461538461538463674,1.34615384615384559019,1.15384615384615418776,2.11538461538461586287,2.22222222222222232091,1.11111111111111116045,3.51851851851851726849,3.14814814814814880606,0.00000000000000000000,0.00000000000000000000,0.00000000000000000000,0.00000000000000000000,0.00000000000000000000,0.00000000000000000000,12.00000000000000000000,1.92307692307692312816,0.38461538461538463674,0.38461538461538447020,0.76923076923076938449,1.53846153846153876898,0.00000000000000000000,0.92592592592592593004,1.11111111111111071637,1.66666666666666696273,2.77777777777777812318,2.03703703703703498107,1.48148148148148184333,0.00000000000000000000,0.00000000000000000000,0.00000000000000000000,6.00000000000000000000,1.15384615384615374367,0.57692307692307687184,1.15384615384615352163,0.96153846153846178613,1.15384615384615418776,0.00000000000000000000,0.00000000000000000000,0.00000000000000000000,0.00000000000000000000,0.74074074074074092167,2.96296296296296013395,2.77777777777777812318,2.77777777777777812318,0.74074074074074092167,0.00000000000000000000,1.00000000000000000000,0.96153846153846156408,0.76923076923076927347,0.38461538461538447020,2.11538461538461586287,0.76923076923076938449,0.00000000000000000000,0.00000000000000000000,0.18518518518518511939,1.29629629629629650189,3.14814814814814880606,3.70370370370370061153,0.92592592592592615208,0.74074074074074092167,0.00000000000000000000,0.00000000000000000000,0.00000000000000000000,0.06354329944000801367,0.04472956914613520490,-0.05285420882369566004,-0.15431728318770498998,-0.15572478492207716960,-0.07973735300238532497,-0.01087997647066345219,-0.04549923738393171074,-0.01596247321117313586,0.02393717591057903035,0.10577630427506384825,0.21293014992019496101,0.32369571925614737395,0.42533112941010003949,0.50546877023518665961,0.56235270979008733505,0.59600089676700773733,0.63149733653812434309,0.65699935028624223410,0.68028913908506272179,0.70951016902732255698,0.74580957048983353985,0.78644398025091677429,0.82211351476284999507,0.90913994497089911651,0.13583302677143352377,0.56533333333333335435,0.17600000000000001754,0.38933333333333330906,0.07466666666666665897,0.07496053571491455292,0.26933333333333336901,-0.04326647892964408104,0.36800000000000004929,0.33008882204045125741,-0.01154533972972121569,0.19200000000000003175,0.19733333333333333282,2.98858156010532738378,0.31132889196581586821,0.68867110803418418730,0.13190464300711604584,0.47651163494531517673,0.65103392311970120776,0.33970503115388545057,0.34896607688029868122,0.11999999999999999556,0.21231647202581591105,0.26133333333333336190,0.46297000374527580435,0.38133333333333335746,0.67528647577109179867,2.17658730158730184812,0.09066666666666667318,0.16056640676722166994,0.13066666666666668095,0.23130293985238314924,0.22133333333333335413,0.39186934661960481918,1.45555555555555549141,0.06400000000000000133,0.11317542645072692364,0.08266666666666666607,0.14632490078802118383,0.14666666666666663965,0.25950032723874810747,1.31084656084656092645,0.94786263317182195554,8.30028236244885952999,14.34242170861124954229,3.37309054468579461172,9.24814499562068093041,17.71551225329704593037,0.10099440970702154574,0.89900559029297832936,0.81080256569457598292,0.18919743430542393381,0.34459438146243454026,0.65540561853756551525,0.43280399076835490701,0.58522490334026855408,0.01126408868449427746,-0.00649015899263886541,-0.00365857655762584022,-0.00569419520890968034,0.00448740154549624303,0.24393622385752353199,0.73439589183356634994,0.87924486161293147202,0.92606723601788998312,0.40484713925025711534,-0.57127290452335066639,-0.32693974332469782906,-0.50624528735188478734,0.40113572592396301575,3.18846204890178563929,3.91408820150956593409,4.01654219107996102167,1.78935066631879036159,0.03466666666666667201,0.05866666666666667251,0.05333333333333333676,0.05333333333333333676,0.11733333333333333115,0.06088248534991847621,0.10378575508922456561,0.09447458319619568556,0.09454646222756901697,0.20759326304320682710,0.14133333333333333859,0.08266666666666665220,-0.02933333333333333279,0.02400000000000000397,0.14133333333333333859,0.25044640661589739894,0.14666065152667281946,-0.05218606833047709226,0.04236039389709192471,0.24995365694029877957,-0.13922359977073120452,-0.00612647823689916726,0.26191212615323183899,0.00637075643695123300
57,57_2,139,84,,,,107.14285714285715300775,70.00000000000000000000,0.98176989581643958616,76.00000000000000000000,0.93161066304010886618,35.00000000000000000000,0.90464914493361725523,15.00000000000000000000,0.89686311690849762623,7.00000000000000000000,0.76938369391041705470,3.00000000000000000000,1.53846153846153854694,0.57692307692307687184,0.57692307692307676081,0.57692307692307709388,1.73076923076923105960,1.85185185185185186008,1.85185185185185186008,1.48148148148148095515,0.92592592592592615208,0.74074074074074092167,0.37037037037037001674,0.37037037037037046083,0.55555555555555569125,0.55555555555555569125,1.29629629629629650189,26.00000000000000000000,0.00000000000000000000,0.57692307692307687184,1.15384615384615352163,1.34615384615384647837,1.92307692307692357225,2.22222222222222232091,1.29629629629629627985,4.62962962962962798485,1.85185185185185230416,0.00000000000000000000,0.00000000000000000000,0.00000000000000000000,0.00000000000000000000,0.00000000000000000000,0.00000000000000000000,12.00000000000000000000,2.11538461538461541878,0.38461538461538463674,0.19230769230769223510,0.76923076923076938449,1.53846153846153876898,0.00000000000000000000,1.29629629629629627985,0.55555555555555535818,2.22222222222222276500,2.77777777777777812318,1.85185185185185030576,1.29629629629629650189,0.00000000000000000000,0.00000000000000000000,0.00000000000000000000,6.00000000000000000000,1.15384615384615374367,0.57692307692307687184,0.76923076923076894040,1.15384615384615418776,1.34615384615384647837,0.00000000000000000000,0.00000000000000000000,0.00000000000000000000,0.00000000000000000000,0.00000000000000000000,2.59259259259259033925,2.22222222222222276500,3.51851851851851904485,1.66666666666666696273,0.00000000000000000000,1.00000000000000000000,0.57692307692307687184,0.76923076923076927347,1.15384615384615352163,1.73076923076923105960,0.76923076923076938449,0.00000000000000000000,0.00000000000000000000,0.18518518518518511939,0.37037037037037046083,2.40740740740740788439,4.25925925925925596971,2.40740740740740788439,0.37037037037037046083,0.00000000000000000000,0.00000000000000000000,17.00000000000000000000,0.06563430444460567614,0.02922833840457540744,-0.08824469262484163634,-0.18719012461013562199,-0.17386717212158189771,-0.08377275438152359532,-0.00876000037423851734,-0.03562828680732582631,0.00118720119995454742,0.04542165324145697181,0.13063922477255893173,0.23884147524168217180,0.33928275919147649065,0.42999752505289062787,0.49920774743750301328,0.54324787085571157874,0.57553310493319764785,0.60198053964900977153,0.63234861238017436857,0.66659569672714757971,0.69820152644714783552,0.73959432850675765891,0.78258876485533301892,0.82779960411057651459,0.91330497466354321201,0.17602445404667346751,0.57066666666666676644,0.17866666666666666807,0.39200000000000007061,0.07733333333333332338,0.07695105711365547718,0.26400000000000001243,-0.04271309334316919504,0.37066666666666669983,0.32599875640840020319,-0.01159929220449222066,0.19200000000000003175,0.20000000000000003886,2.99664556837103690512,0.31296296296296294281,0.68703703703703700167,0.13544973544973545887,0.46243386243386241929,0.64947089947089953199,0.33650793650793647815,0.35052910052910046801,0.12266666666666665997,0.21494708994708991434,0.25333333333333335480,0.44404761904761907987,0.37600000000000005640,0.65899470899470902197,2.07083333333333330373,0.09333333333333333759,0.16349206349206346633,0.12800000000000000266,0.22447089947089948758,0.22133333333333335413,0.38796296296296300943,1.37626262626262629851,0.06666666666666666574,0.11679894179894179107,0.08000000000000000167,0.14021164021164020386,0.14666666666666663965,0.25701058201058196717,1.20370370370370372015,1.00361099188719826714,8.73319339710830355727,14.68918189062602230877,3.80883407547508090474,9.73680438899550360077,18.49801596610110365759,0.10256879734013701899,0.89743120265986309203,0.79656487795141239783,0.20343512204858760217,0.34490131016696290445,0.65509868983303709555,0.39808424366274980377,0.58557935704565033941,0.01199709746759409883,-0.00795651638870934798,-0.00412947410050793894,-0.00476894699175922643,0.00395619077207826075,0.19734716950117600631,0.80330845230054548356,0.93792095517749263234,0.89935704480177502962,0.38946814400344687002,-0.66657121711336808634,-0.34793771535848921905,-0.40232584237116286729,0.32333217089180193993,4.40114855608031962930,5.14915990116513810904,4.91610163498828800499,2.13276773816614317880,0.03200000000000000067,0.07200000000000000844,0.08800000000000000877,0.01333333333333333419,0.11733333333333333115,0.05608465608465607738,0.12605820105820106369,0.15396825396825394860,0.02328042328042327982,0.20595238095238097009,0.14666666666666669516,0.07466666666666665897,0.01333333333333333419,0.02666666666666666838,0.14399999999999998912,0.25687830687830687237,0.13082010582010580868,0.02314814814814815033,0.04642857142857143016,0.25238095238095237249,-0.23963983027551805094,-0.00607491049500794283,0.08369234061628388899,0.01235018409451208755
57,57_1,139,84,,,,105.63380281690140805040,71.00000000000000000000,0.98305938951810767357,77.00000000000000000000,0.92848439667540316744,34.00000000000000000000,0.92134177898308633470,16.00000000000000000000,0.91143052429878657072,7.00000000000000000000,0.68039725057620503712,4.00000000000000000000,1.39999999999999991118,0.59999999999999997780,0.59999999999999975575,0.60000000000000008882,1.80000000000000026645,1.45454545454545458583,1.81818181818181812126,1.63636363636363579843,1.27272727272727292913,0.54545454545454563622,0.54545454545454497008,0.36363636363636370197,0.54545454545454563622,0.54545454545454563622,1.27272727272727292913,25.00000000000000000000,0.00000000000000000000,0.40000000000000002220,1.39999999999999946709,1.20000000000000017764,2.00000000000000044409,2.18181818181818165669,1.09090909090909082835,6.18181818181817988034,0.54545454545454563622,0.00000000000000000000,0.00000000000000000000,0.00000000000000000000,0.00000000000000000000,0.00000000000000000000,0.00000000000000000000,11.00000000000000000000,2.20000000000000017764,0.40000000000000002220,0.19999999999999992784,0.60000000000000008882,1.60000000000000031086,0.00000000000000000000,0.90909090909090906063,1.09090909090909060630,1.27272727272727292913,3.63636363636363757479,1.99999999999999822364,1.09090909090909127244,0.00000000000000000000,0.00000000000000000000,0.00000000000000000000,5.00000000000000000000,1.39999999999999991118,0.59999999999999997780,1.19999999999999951150,0.80000000000000015543,1.00000000000000022204,0.00000000000000000000,0.00000000000000000000,0.00000000000000000000,0.00000000000000000000,0.00000000000000000000,3.27272727272726982051,3.27272727272727337322,2.18181818181818254487,0.90909090909090939370,0.36363636363636370197,1.00000000000000000000,1.19999999999999995559,0.20000000000000001110,0.99999999999999966693,2.20000000000000062172,0.40000000000000007772,0.00000000000000000000,0.00000000000000000000,0.00000000000000000000,0.72727272727272740394,0.90909090909090939370,3.99999999999999644729,1.63636363636363668661,1.45454545454545480787,0.72727272727272740394,0.54545454545454563622,14.00000000000000000000,0.05512734587553756033,-0.00139680042400594832,-0.12807774301250599014,-0.21577670883540522873,-0.18840837550194808325,-0.08922499760770698229,-0.00935747160073527144,-0.03590577304811109344,-0.00057229126257138678,0.04067457582645201547,0.12794906254192525696,0.23249214768188006253,0.32510554769830579680,0.40689379937397601728,0.45831102708261556300,0.49400429144986351959,0.52434387989087161142,0.54107851244589055817,0.55612172551653415997,0.58197707485793270799,0.60485053425086943157,0.63827385462201080557,0.67593609952936251073,0.69815699461684666005,0.77149580685263285940,0.18551763171306767664,0.56799999999999994937,0.17333333333333333925,0.39466666666666672114,0.06666666666666666574,0.07598638191591668145,0.25866666666666665586,-0.04063301070864525771,0.36800000000000004929,0.32625233047649376816,-0.00942665324705675191,0.19466666666666668228,0.20000000000000003886,2.92003654670107559710,0.30520530590953126593,0.69479469409046867856,0.11738579625903568238,0.45546054102392136143,0.64790781727401436374,0.34270251136448320883,0.35209218272598558075,0.11733333333333333115,0.20660071540353230901,0.27733333333333337611,0.48952418212981596568,0.39466666666666666563,0.69612489753334827469,2.35555555555555562464,0.09066666666666667318,0.15971197555704599869,0.13333333333333333148,0.23490573068037856608,0.22399999999999997691,0.39461770623742453701,1.46969696969696972388,0.06666666666666666574,0.11745286534018928304,0.08000000000000000167,0.14086370072285564481,0.14666666666666663965,0.25831656606304492785,1.20370370370370372015,0.65889288980142246555,8.70597943489324244126,14.73898052163768035427,5.22589402637578004374,9.36487232469466412965,19.96487454801345862165,0.07117231516287551851,0.92882768483712452312,0.75193897887449689943,0.24806102112550329486,0.32202850401886901066,0.67797149598113104485,0.30948738569512629359,0.54265499042544040886,0.01243047440571721195,-0.00715927318706695726,-0.00356599678310102553,-0.00526446415824577407,0.00457262732719680275,0.10342292710007332246,0.69510542699400745814,0.83401326791712404596,0.86104757985043123281,0.41207042627465467755,-0.57549907582267667561,-0.28845520885821401835,-0.42350150340230907631,0.36882535153168749531,8.21630836463059210928,9.62876537548982014414,10.12321062447896302672,4.96412614859048506588,0.01866666666666666821,0.07199999999999999456,0.05866666666666666557,0.04533333333333332965,0.11199999999999998845,0.03280050674416871287,0.12704374394515238755,0.10389373276697221049,0.07929614725389373675,0.19700983679856917674,0.15466666666666670227,0.08266666666666666607,-0.02399999999999999703,0.02133333333333333262,0.13333333333333333148,0.27240479916536258775,0.14536105522021014469,-0.04146732245323795502,0.03782882480065578173,0.23483866159922497929,-0.23236771509384110401,-0.00578515261647179983,0.13645763643784639130,0.00707747579837853750
58,58_1,110,63,,,,74.25742574257425587803,101.00000000000000000000,0.97591773998668851497,79.00000000000000000000,0.88888622697533625772,32.00000000000000000000,0.84739163205054868211,14.00000000000000000000,0.73572330983514611091,8.00000000000000000000,0.74217716891739793361,7.00000000000000000000,0.90909090909090906063,1.13636363636363646457,0.45454545454545436378,0.90909090909090928267,1.59090909090909127244,1.89655172413793104980,1.72413793103448265143,1.55172413793103403101,1.20689655172413812245,0.51724137931034497306,0.51724137931034441795,0.51724137931034497306,0.34482758620689663021,0.51724137931034497306,1.20689655172413812245,22.00000000000000000000,0.00000000000000000000,0.68181818181818176772,1.13636363636363602048,1.36363636363636397952,1.81818181818181856535,1.72413793103448265143,1.20689655172413790041,3.44827586206896441468,3.62068965517241458940,0.00000000000000000000,0.00000000000000000000,0.00000000000000000000,0.00000000000000000000,0.00000000000000000000,0.00000000000000000000,11.00000000000000000000,1.81818181818181812126,0.45454545454545453032,0.45454545454545436378,1.13636363636363668661,1.13636363636363668661,0.00000000000000000000,0.68965517241379314939,1.55172413793103403101,4.82758620689655248981,1.37931034482758652082,1.55172413793103292079,0.00000000000000000000,0.00000000000000000000,0.00000000000000000000,0.00000000000000000000,7.00000000000000000000,0.68181818181818176772,0.90909090909090906063,0.68181818181818154567,1.81818181818181856535,0.90909090909090928267,0.00000000000000000000,0.00000000000000000000,0.00000000000000000000,0.17241379310344831510,1.55172413793103469715,3.96551724137930694525,2.58620689655172464327,1.20689655172413812245,0.51724137931034497306,0.00000000000000000000,36.00000000000000000000,0.22727272727272726516,0.45454545454545453032,2.27272727272727204095,1.59090909090909127244,0.45454545454545464134,0.00000000000000000000,0.00000000000000000000,0.00000000000000000000,0.00000000000000000000,2.41379310344827624490,2.75862068965516993302,2.93103448275862099592,1.72413793103448331756,0.17241379310344831510,0.00000000000000000000,16.00000000000000000000,0.01724632303333522437,-0.01619160131308448880,-0.08945378072589209306,-0.17244832663756740065,-0.16495544500777228891,-0.08799101762823804962,-0.01038966929043854022,-0.02357062568489211654,0.01739272246285184995,0.07751242666839246176,0.19065777729010258135,0.29973205087704357652,0.39979964369216675069,0.47170861297472133078,0.52360927949929758629,0.55702786820576788429,0.58955634203749540667,0.62261610713976178744,0.66049119968288594329,0.69698952379024881054,0.73853772811350304472,0.77073207750162742169,0.83531011442999714145,0.85374504992433430939,0.90179805091854636778,0.16888227930102869823,0.82399999999999995470,0.27200000000000001954,0.55200000000000004619,0.14399999999999998912,0.04707000300339586607,0.40000000000000002220,-0.02801934240820808109,0.54400000000000003908,0.39370319936977260511,-0.00656624794324273120,0.27200000000000001954,0.28000000000000002665,2.49140022027956442585,0.32744132135612868950,0.67255867864387131050,0.16671496184680767438,0.48507678933642423003,0.66106442577030810615,0.33362310441417947215,0.33893557422969189385,0.27200000000000001954,0.32744132135612868950,0.43599999999999999867,0.54916449338356032595,0.70799999999999996270,0.87660581473968890442,1.70234869015356826694,0.13600000000000000977,0.16912972085385880039,0.20800000000000001821,0.26175987636433883932,0.34399999999999997247,0.43088959721819763971,1.52941176470588224845,0.09600000000000000200,0.11938568530860620143,0.11599999999999999201,0.14503042596348886262,0.21199999999999999400,0.26441611127209507792,1.20833333333333348136,4.46900312358197027152,10.10103268256024122707,18.57843637778425716078,5.08251608772979324158,14.57003580614221149858,23.66095246551405040236,0.23794392474850836749,0.76205607525149154924,0.79481366178332657491,0.20518633821667342509,0.37461533647114697576,0.62538466352885313526,0.46900267090486058574,0.54295207390475053177,0.00416793992076727737,-0.00407722641697244592,-0.00132968436018415792,-0.00329616708228969157,0.00261906380057630450,0.30859842282517979672,0.79011306536738801221,0.91938441961046379891,0.86741023470359157610,0.56905456768497630904,-2.48661216334997181576,-0.34420286291838375625,-1.74888498852818474738,1.48458545533453789567,2.57497927919038982481,2.98428146250726200606,2.81133128717479152670,1.83889573982409437747,0.01200000000000000025,0.16000000000000000333,0.11200000000000000233,0.03600000000000000422,0.10400000000000000910,0.01724137931034482735,0.18352168453588330044,0.13464696223316913182,0.04554235487298367857,0.13087993818216941966,0.26000000000000000888,0.10000000000000000555,0.01200000000000000025,0.04800000000000000100,0.15199999999999999623,0.31019994204578382746,0.12667825750990052702,0.00796870472326861867,0.05351105959625229724,0.18439099777842171690,-1.87810976723794098575,-0.00291458749379870565,-0.39352431190340314560,0.02649687304622441383
58,58_3,110,63,,,,71.42857142857143060155,105.00000000000000000000,0.97421984616722367978,79.00000000000000000000,0.87270908006948388902,31.00000000000000000000,0.80067553088690068819,13.00000000000000000000,0.65504698348177192724,9.00000000000000000000,0.68543688469080121806,5.00000000000000000000,1.73076923076923083755,0.76923076923076927347,0.57692307692307676081,0.57692307692307709388,1.34615384615384647837,0.00000000000000000000,2.40740740740740744030,1.66666666666666607455,1.48148148148148184333,1.11111111111111138250,0.55555555555555513614,0.55555555555555569125,0.55555555555555569125,0.55555555555555569125,1.11111111111111138250,26.00000000000000000000,0.00000000000000000000,1.73076923076923083755,0.96153846153846123102,0.76923076923076938449,1.53846153846153876898,1.85185185185185186008,1.11111111111111116045,6.29629629629629405940,0.74074074074074092167,0.00000000000000000000,0.00000000000000000000,0.00000000000000000000,0.00000000000000000000,0.00000000000000000000,0.00000000000000000000,15.00000000000000000000,1.53846153846153854694,0.38461538461538463674,1.53846153846153788081,0.57692307692307709388,0.96153846153846178613,0.00000000000000000000,0.18518518518518517491,2.77777777777777679091,2.77777777777777812318,2.59259259259259300379,1.29629629629629516963,0.37037037037037046083,0.00000000000000000000,0.00000000000000000000,0.00000000000000000000,11.00000000000000000000,0.57692307692307687184,0.57692307692307687184,1.53846153846153788081,1.73076923076923105960,0.57692307692307709388,0.00000000000000000000,0.00000000000000000000,0.00000000000000000000,0.18518518518518523042,1.48148148148148184333,2.59259259259259033925,3.70370370370370460833,2.03703703703703764560,0.00000000000000000000,0.00000000000000000000,8.00000000000000000000,0.57692307692307687184,0.38461538461538463674,3.26923076923076827427,0.76923076923076938449,0.00000000000000000000,0.00000000000000000000,0.00000000000000000000,0.18518518518518511939,2.77777777777777812318,3.33333333333333392545,2.22222222222222054455,0.92592592592592615208,0.37037037037037046083,0.18518518518518523042,0.00000000000000000000,78.00000000000000000000,0.06590295557011774386,0.08313314534234252096,0.05916023920197042985,-0.04167913264399163847,-0.10056738542440740725,-0.06135724913010869030,-0.00794635199480472725,-0.02150324737217731291,0.02700860308704677165,0.08800006391543901962,0.18411459225910875581,0.27426628941808861573,0.35050033723314766299,0.40647342540662989574,0.43965766691461205529,0.47566051521636454336,0.50032487774001310754,0.53397911425028798948,0.57904826907736084429,0.63092615214241432042,0.67079686921930714583,0.70002406667393313189,0.72794600481301574568,0.74840813367043890203,0.79300989735340188247,0.18161597002428320202,0.88800000000000001155,0.29600000000000004086,0.59200000000000008171,0.16400000000000000688,0.05734248518680085116,0.40800000000000002931,-0.03011966313653874350,0.58399999999999996358,0.36427069600631722945,-0.00685395166213348395,0.28800000000000003375,0.30399999999999999245,2.76185333266735533186,0.33392871640821630841,0.66607128359178369159,0.18482585045059674034,0.45993342534708125946,0.65787123487862309013,0.32394251847040678172,0.34212876512137696539,0.17199999999999998623,0.19367540797272064790,0.41599999999999998090,0.46975724608265001514,0.58800000000000007816,0.66343265405537066304,2.42748917748917758530,0.12800000000000000266,0.14435333279207601676,0.19600000000000000755,0.22087358934805553790,0.32400000000000001021,0.36522692214013152689,1.53529411764705892018,0.08799999999999999489,0.09929365917025249899,0.10799999999999999878,0.12157993017780303890,0.19600000000000000755,0.22087358934805553790,1.24166666666666669627,3.55507651976855765241,12.37677797671656421130,23.30208134361678418145,7.83625013009946425058,15.93185449648512275189,31.13833147371624932020,0.22221722310933003652,0.77778277689066999123,0.75059609996861054171,0.24940390003138937502,0.33863504561472046461,0.66136495438527953539,0.44959836832478183855,0.51187254934615777913,0.00210780860774234090,-0.00389255796440873825,-0.00087709628154564179,-0.00447003376082416581,0.00319817381779180510,0.11753453181001231875,0.68343873769584173594,0.98148994625642060896,0.96631726349934066178,0.52359472015929231503,-5.31938762768939454872,-1.00441213720574817891,-4.34135621555953576944,3.14467164261627063482,32.86067154110354238128,56.42669161102321595536,55.46796625165943339653,30.32550748852879252127,0.00000000000000000000,0.17999999999999999334,0.10399999999999999523,0.02400000000000000050,0.15599999999999999978,0.00000000000000000000,0.20268734269708532647,0.11747990582122269654,0.02719818137533490388,0.17581391572623206176,0.29600000000000004086,0.11599999999999999201,-0.01200000000000000025,0.01200000000000000025,0.16800000000000001044,0.33392871640821630841,0.13124137371113095418,-0.01376146788990825764,0.01343671348542664623,0.18925062921165869412,-3.11829091754038145723,-0.00365939855163172328,0.02638072507588962168,0.00064658496403734416
58,58_2,110,63,,,,76.53061224489795222325,98.00000000000000000000,0.98175752058320231441,79.00000000000000000000,0.90773938709050283613,32.00000000000000000000,0.86609902217407064295,14.00000000000000000000,0.73931461041584034533,8.00000000000000000000,0.64664886935473409046,3.00000000000000000000,0.19230769230769231837,2.11538461538461541878,0.57692307692307676081,0.57692307692307709388,1.53846153846153876898,1.29629629629629627985,1.66666666666666674068,1.29629629629629583576,1.29629629629629650189,0.92592592592592615208,0.74074074074074003349,0.55555555555555569125,0.37037037037037046083,0.55555555555555569125,1.29629629629629650189,26.00000000000000000000,0.00000000000000000000,1.15384615384615374367,1.34615384615384559019,0.96153846153846178613,1.53846153846153876898,0.74074074074074069962,2.77777777777777767909,4.44444444444444286546,2.03703703703703764560,0.00000000000000000000,0.00000000000000000000,0.00000000000000000000,0.00000000000000000000,0.00000000000000000000,0.00000000000000000000,14.00000000000000000000,1.73076923076923083755,0.19230769230769231837,1.53846153846153788081,0.57692307692307709388,0.96153846153846178613,0.00000000000000000000,0.18518518518518517491,2.40740740740740655212,3.88888888888888972772,1.66666666666666696273,1.85185185185185030576,0.00000000000000000000,0.00000000000000000000,0.00000000000000000000,0.00000000000000000000,10.00000000000000000000,0.00000000000000000000,1.15384615384615374367,0.57692307692307676081,2.30769230769230837552,0.96153846153846178613,0.00000000000000000000,0.00000000000000000000,0.37037037037037023879,1.29629629629629650189,1.48148148148148184333,3.33333333333333037274,2.40740740740740788439,1.11111111111111138250,0.00000000000000000000,0.00000000000000000000,7.00000000000000000000,0.57692307692307687184,0.76923076923076927347,1.92307692307692246203,1.53846153846153876898,0.19230769230769234612,0.00000000000000000000,0.00000000000000000000,0.18518518518518511939,0.92592592592592615208,2.03703703703703764560,3.33333333333333037274,2.96296296296296368666,0.37037037037037046083,0.18518518518518523042,0.00000000000000000000,77.00000000000000000000,0.04827524922847725719,0.06398678184930589596,0.03242344210369117741,-0.06852561715472778314,-0.11041051516488628592,-0.06506898087113457962,-0.00926568677962674031,-0.03358561931334857337,0.00348126268842235010,0.05356898733855995631,0.14068675242933717517,0.23156150069511510781,0.31530684828127486519,0.37483313187577743664,0.42074364027117339138,0.46450277910994824948,0.50332020999482474100,0.55004440171667434711,0.59687399298948773385,0.64536675878824656394,0.69502281161639323237,0.74768983201567174035,0.79391437288754174162,0.81711061744942403706,0.88757453165851685206,0.17904503112470754322,0.92800000000000004707,0.28799999999999997824,0.64000000000000001332,0.16000000000000000333,0.03946329077723453871,0.40000000000000002220,-0.02434414246948313210,0.52000000000000001776,0.46744374007595562714,-0.00844706317834992282,0.23200000000000001177,0.40799999999999997380,1.94564121290575764434,0.31034482758620690612,0.68965517241379314939,0.17241379310344828735,0.43103448275862066286,0.56034482758620685061,0.25000000000000000000,0.43965517241379309388,0.28799999999999997824,0.31034482758620690612,0.40799999999999997380,0.43965517241379309388,0.69599999999999995204,0.75000000000000000000,1.41666666666666674068,0.15199999999999999623,0.16379310344827585633,0.23999999999999999112,0.25862068965517243102,0.39200000000000001510,0.42241379310344828735,1.57894736842105265495,0.10399999999999999523,0.11206896551724138122,0.12800000000000000266,0.13793103448275861878,0.23200000000000001177,0.25000000000000000000,1.23076923076923083755,7.31539430980148530637,12.07798153526685780434,20.04360467337743756389,10.81016682367394210473,19.39337584506834133435,30.85377149705137966862,0.37721098009152237429,0.62278901990847768122,0.64963223945873060927,0.35036776054126944624,0.38595973843099795619,0.61404026156900204381,0.21689028414201630413,0.52419522600482004737,0.00129984124536636214,-0.00242358836367639885,-0.00056994521494624362,-0.00314542387945737634,0.00225173807974288209,0.34989679987542648965,0.74295122844971661635,0.86202285030160796797,0.81916852534509587702,0.57777496667695815713,-1.86452643529810968559,-0.43847294196731212423,-2.41985234017622996561,1.73231776401142467670,2.12334387943596247794,2.46364885477235961986,2.34117181305100219291,1.65127250915888046379,0.00000000000000000000,0.17599999999999998979,0.15199999999999999623,0.02400000000000000050,0.08799999999999999489,0.00000000000000000000,0.18965517241379309388,0.16379310344827585633,0.02586206896551724102,0.09482758620689654694,0.28799999999999997824,0.11200000000000000233,0.04000000000000000083,0.06400000000000000133,0.15199999999999999623,0.31034482758620690612,0.12068965517241379837,0.04310344827586207184,0.06896551724137930939,0.16379310344827585633,-0.73851891716599249449,-0.00231782417589758817,0.99379884684543218221,0.02616164773127790250
