patient,trial,SP,DP,ppg_fft_peaks_0,ppg_fft_peaks_heights_0,ppg_fft_peaks_neighbor_avgs_0,hr_0,p2p_0,ppg_max_neighbor_mean_0,ppg_min_0,vpg_max_neighbor_mean_0,vpg_min_0,apg_max_neighbor_mean_0,apg_min_0,ppg3_max_neighbor_mean_0,ppg3_min_0,ppg4_max_neighbor_mean_0,ppg4_min_0,ppg_histogram_up_0,ppg_histogram_up_1,ppg_histogram_up_2,ppg_histogram_up_3,ppg_histogram_up_4,ppg_histogram_down_0,ppg_histogram_down_1,ppg_histogram_down_2,ppg_histogram_down_3,ppg_histogram_down_4,ppg_histogram_down_5,ppg_histogram_down_6,ppg_histogram_down_7,ppg_histogram_down_8,ppg_histogram_down_9,ppg_max_0,vpg_histogram_up_0,vpg_histogram_up_1,vpg_histogram_up_2,vpg_histogram_up_3,vpg_histogram_up_4,vpg_histogram_down_0,vpg_histogram_down_1,vpg_histogram_down_2,vpg_histogram_down_3,vpg_histogram_down_4,vpg_histogram_down_5,vpg_histogram_down_6,vpg_histogram_down_7,vpg_histogram_down_8,vpg_histogram_down_9,vpg_max_0,apg_histogram_up_0,apg_histogram_up_1,apg_histogram_up_2,apg_histogram_up_3,apg_histogram_up_4,apg_histogram_down_0,apg_histogram_down_1,apg_histogram_down_2,apg_histogram_down_3,apg_histogram_down_4,apg_histogram_down_5,apg_histogram_down_6,apg_histogram_down_7,apg_histogram_down_8,apg_histogram_down_9,apg_max_0,ppg3_histogram_up_0,ppg3_histogram_up_1,ppg3_histogram_up_2,ppg3_histogram_up_3,ppg3_histogram_up_4,ppg3_histogram_down_0,ppg3_histogram_down_1,ppg3_histogram_down_2,ppg3_histogram_down_3,ppg3_histogram_down_4,ppg3_histogram_down_5,ppg3_histogram_down_6,ppg3_histogram_down_7,ppg3_histogram_down_8,ppg3_histogram_down_9,ppg3_max_0,ppg4_histogram_up_0,ppg4_histogram_up_1,ppg4_histogram_up_2,ppg4_histogram_up_3,ppg4_histogram_up_4,ppg4_histogram_down_0,ppg4_histogram_down_1,ppg4_histogram_down_2,ppg4_histogram_down_3,ppg4_histogram_down_4,ppg4_histogram_down_5,ppg4_histogram_down_6,ppg4_histogram_down_7,ppg4_histogram_down_8,ppg4_histogram_down_9,ppg4_max_0,usdc_0,usdc_1,usdc_2,usdc_3,usdc_4,usdc_5,dsdc_0,dsdc_1,dsdc_2,dsdc_3,dsdc_4,dsdc_5,dsdc_6,dsdc_7,dsdc_8,dsdc_9,dsdc_10,dsdc_11,dsdc_12,dsdc_13,dsdc_14,dsdc_15,dsdc_16,dsdc_17,dsdc_18,ppg_mean_cycles_match_peak_59,Tc,Ts,Td,Tsteepest,Steepest,TNegSteepest,NegSteepest,TdiaRise,DiaRise,SteepDiaRise,TSystoDiaRise,TdiaToEnd,Ratio,Ts_norm,Td_norm,Tsteepest_norm,TNegSteepest_norm,TdiaRise_norm,TSystoDiaRise_norm,TdiaToEnd_norm,SW25,SW25_norm,DW25,DW25_norm,SWaddDW25,SWaddDW25_norm,DWdivSW25,SW50,SW50_norm,DW50,DW50_norm,SWaddDW50,SWaddDW50_norm,DWdivSW50,SW75,SW75_norm,DW75,DW75_norm,SWaddDW75,SWaddDW75_norm,DWdivSW75,S1,S2,S3,S4,AUCsys,AUCdia,S1_norm,S2_norm,S3_norm,S4_norm,AUCsys_norm,AUCdia_norm,SQI_skew,SQI_kurtosis,apg_a,apg_b,apg_c,apg_d,apg_e,ppg_a,ppg_b,ppg_c,ppg_d,ppg_e,ratio_apg_b,ratio_apg_c,ratio_apg_d,ratio_apg_e,ratio_ppg_b,ratio_ppg_c,ratio_ppg_d,ratio_ppg_e,T_a,T_b,T_c,T_d,T_e,T_a_norm,T_b_norm,T_c_norm,T_d_norm,T_e_norm,T_peak_a,T_peak_b,T_peak_c,T_peak_d,T_peak_e,T_peak_a_norm,T_peak_b_norm,T_peak_c_norm,T_peak_d_norm,T_peak_e_norm,AI,bd,bcda,sdoo
9,9_2,123,73,,,,91.46341463414634631590,82.00000000000000000000,0.96245989190409009240,1.00000000000000000000,0.90510570528303058158,35.00000000000000000000,0.87436143611667771491,18.00000000000000000000,0.63705703742450736637,11.00000000000000000000,0.45257582521431977129,41.00000000000000000000,1.57894736842105265495,0.78947368421052632748,0.52631578947368407029,0.78947368421052654952,1.31578947368421084185,1.14754098360655731881,1.14754098360655731881,1.47540983606557341012,0.98360655737704938417,1.80327868852459061166,0.49180327868852419249,0.32786885245901642438,0.32786885245901642438,0.65573770491803284877,1.63934426229508245498,19.00000000000000000000,0.00000000000000000000,0.26315789473684209065,1.05263157894736814058,1.31578947368421084185,2.36842105263157920447,1.47540983606557385421,0.98360655737704916213,6.39344262295081744440,0.98360655737704938417,0.16393442622950821219,0.00000000000000000000,0.00000000000000000000,0.00000000000000000000,0.00000000000000000000,0.00000000000000000000,10.00000000000000000000,1.31578947368421061981,0.52631578947368418131,0.52631578947368407029,0.52631578947368429233,2.10526315789473716933,0.16393442622950818444,0.16393442622950818444,0.16393442622950812892,1.96721311475409876834,2.95081967213114815252,2.45901639344262079589,1.47540983606557407626,0.49180327868852469209,0.16393442622950821219,0.00000000000000000000,5.00000000000000000000,1.31578947368421061981,1.31578947368421061981,0.78947368421052599441,0.78947368421052654952,0.78947368421052654952,0.00000000000000000000,0.00000000000000000000,0.16393442622950812892,0.98360655737704938417,0.65573770491803284877,3.60655737704917722652,2.45901639344262346043,0.98360655737704938417,0.49180327868852469209,0.65573770491803284877,38.00000000000000000000,0.26315789473684209065,2.10526315789473672524,0.78947368421052599441,1.57894736842105309904,0.26315789473684214617,0.00000000000000000000,0.49180327868852458106,0.98360655737704882906,1.63934426229508245498,1.80327868852459061166,2.78688524590163710926,1.63934426229508245498,0.32786885245901642438,0.16393442622950821219,0.16393442622950821219,73.00000000000000000000,0.02006817051035994157,-0.05517775914153292410,-0.17925286416653712918,-0.26451759982123623782,-0.23001529015704313963,-0.11202943575994159242,-0.00975784349726442971,-0.01932838818693844579,0.01644962829446602534,0.05674338791035973828,0.16335982261478382283,0.28234964201943513196,0.35788633604610953221,0.36756340919824381785,0.37375916063781644549,0.39552738756164762535,0.42969564795662862355,0.48171263753189658141,0.54351402801407555643,0.57230404034530191204,0.63558465414744458322,0.67890592042232433823,0.74396272998701207246,0.79521905747198484704,0.89261008338660041694,0.24172933005746394253,0.62800000000000000266,0.15199999999999999623,0.47599999999999997868,0.06400000000000000133,0.07989144076083376511,0.16799999999999998268,-0.00988327728679472273,0.25200000000000000178,0.64004108682134486230,0.00048770937370953837,0.10000000000000000555,0.37600000000000000089,1.56580547860868213306,0.24283620970367958414,0.75716379029632041586,0.10224682513839140896,0.26913057635949200197,0.40882448713774016680,0.16598827743406055490,0.59117551286225988871,0.09600000000000000200,0.15337023770758712038,0.32799999999999995826,0.52181699772061218567,0.42400000000000004352,0.67518723542819925054,3.41666666666666651864,0.07599999999999999811,0.12178443503744709742,0.15200000000000002398,0.24137088896125041826,0.22799999999999998046,0.36315532399869748792,2.01666666666666660745,0.04800000000000000100,0.07741777922500814313,0.10399999999999999523,0.16468577010745685807,0.15199999999999999623,0.24210354933246500120,2.28571428571428558740,0.65916269474655186933,6.68630135432031735832,8.38705655985246600892,14.78104829288940536003,7.34546404906686944969,23.16810485274186959259,0.08957248224071343023,0.91042751775928654201,0.37138957878351785968,0.62861042121648214032,0.24078706078559436454,0.75921293921440557995,0.33696087296077426032,0.55311643204786031802,0.01244229816910077599,-0.00766581895876505826,0.00360988598818329232,-0.00726391361429107318,0.01159181370045672677,0.12026240757723395680,0.63698217397234513371,0.85500045953568282187,0.79878985579130024064,0.42663206355496968714,-0.60286461068087104920,0.31794885714487147732,-0.59284146805015691672,0.94886706391053987630,5.48443635126933060064,7.92027869273110596282,7.54495483320416671091,3.91741039492828813096,0.02000000000000000042,0.05999999999999999778,0.09199999999999999845,0.03200000000000000067,0.10000000000000000555,0.03231846304135460590,0.09622272875284923477,0.14661348095083034937,0.05185607294041029436,0.15719635297948553188,0.13200000000000000622,0.07200000000000000844,0.02000000000000000042,0.05200000000000000455,0.15200000000000002398,0.21051774666232497824,0.11429501790947574347,0.03231846304135460590,0.08417453598176490026,0.24137088896125041826,-1.27683906368612554161,-0.00529218315991271393,-0.32797199977558555428,0.01393761650725755356
9,9_3,123,73,,,,81.96721311475410232106,91.50000000000000000000,0.94819531319426142435,77.00000000000000000000,0.85938814467160540289,34.00000000000000000000,0.76432581723468173696,19.00000000000000000000,0.75005945512441352108,12.00000000000000000000,0.71997781206514654961,10.00000000000000000000,3.00000000000000000000,0.20000000000000001110,0.39999999999999985567,0.40000000000000007772,1.00000000000000022204,0.54545454545454541417,2.18181818181818165669,2.54545454545454452600,0.72727272727272740394,1.09090909090909127244,0.18181818181818165669,0.36363636363636370197,0.54545454545454563622,0.54545454545454563622,1.27272727272727292913,25.00000000000000000000,0.00000000000000000000,2.20000000000000017764,0.79999999999999971134,0.80000000000000015543,1.20000000000000017764,1.27272727272727270709,1.45454545454545458583,5.99999999999999822364,1.27272727272727292913,0.00000000000000000000,0.00000000000000000000,0.00000000000000000000,0.00000000000000000000,0.00000000000000000000,0.00000000000000000000,17.00000000000000000000,1.00000000000000000000,0.59999999999999997780,2.19999999999999928946,0.40000000000000007772,0.80000000000000015543,0.00000000000000000000,0.36363636363636364646,0.18181818181818173996,2.54545454545454585826,5.63636363636363757479,0.72727272727272662678,0.54545454545454563622,0.00000000000000000000,0.00000000000000000000,0.00000000000000000000,14.00000000000000000000,0.80000000000000004441,0.20000000000000001110,0.99999999999999966693,2.00000000000000044409,1.00000000000000022204,0.00000000000000000000,0.00000000000000000000,0.00000000000000000000,0.36363636363636370197,0.18181818181818185098,3.27272727272726982051,3.63636363636363757479,1.45454545454545480787,0.72727272727272740394,0.36363636363636370197,13.00000000000000000000,0.40000000000000002220,0.00000000000000000000,0.99999999999999966693,2.20000000000000062172,1.40000000000000035527,0.00000000000000000000,0.00000000000000000000,0.18181818181818173996,0.36363636363636370197,0.72727272727272740394,2.54545454545454319373,3.09090909090909127244,2.00000000000000044409,1.09090909090909127244,0.00000000000000000000,21.00000000000000000000,0.06450124372962622032,0.08345010434530668320,0.08301885296587326046,0.03761644507602904947,-0.06817704389783525720,-0.07022332878936300704,-0.00412156902825217084,-0.01828589664922977351,0.01683431485243441078,0.04612402436932980937,0.14513857536615518140,0.30275285632401788272,0.41390635065952774418,0.45045706565415760680,0.49418929507898057274,0.56450407440884675658,0.61113388296077697515,0.64528583395937200162,0.65552980043270536736,0.66408787311616612747,0.66828722754682312601,0.70823041369672712353,0.72848587222233229799,0.75304498556064081161,0.82389354824727389914,0.18143794563736437286,0.65600000000000002753,0.21333333333333334703,0.44266666666666670826,0.11466666666666665286,0.09306362190830556880,0.30666666666666664298,-0.03926218678875655760,0.41333333333333333037,0.39339160546972146149,-0.01172882739470406353,0.19999999999999998335,0.24266666666666666941,2.83933401757470749160,0.32898660799052842352,0.67101339200947152097,0.17333350707824354830,0.46559292312160033278,0.62777448903483457077,0.29878788104430614725,0.37222551096516537372,0.11200000000000000233,0.17660487553038736741,0.28533333333333338322,0.44440473132211194551,0.39733333333333331616,0.62100960685249928517,2.57315233785821995127,0.08533333333333333048,0.13511707304360129345,0.16000000000000000333,0.25019639380028518838,0.24533333333333331994,0.38531346684388645407,1.91798941798941768866,0.06400000000000000133,0.10259761051107064989,0.09333333333333333759,0.14290394760846336641,0.15733333333333332504,0.24550155811953403018,1.66666666666666629659,1.06788558981990444607,8.62456629622563397675,16.01576937131517652801,6.95937840866102508386,9.69245188604553753464,22.97514777997619717098,0.11816872072349239586,0.88183127927650761801,0.69142478365910131632,0.30857521634089868368,0.29607388228424219578,0.70392611771575774871,0.35628430291698509613,0.51604001512629527060,0.00799463097703929752,-0.01556831823193312835,0.00430601079491580840,-0.00854265694603917325,0.00984567605400053260,0.11478048917354111147,0.86431750635383941539,0.91662176633797287639,0.78127583687514157162,0.50422359357382984246,-106.09842393043980735001,34.51823672263974884800,-51.82235619314488417331,53.78013768771807434632,41.38004369663747894492,43.01379571090276243694,38.06193421444533697695,22.60715467727900929162,0.01600000000000000033,0.13333333333333333148,0.07733333333333332338,0.05599999999999999423,0.05866666666666666557,0.02564102564102564361,0.20116371858785100923,0.11684159056019081946,0.09187258541113629828,0.08732605342159575901,0.19733333333333333282,0.06400000000000000133,0.01333333333333333592,0.06933333333333334403,0.12800000000000000266,0.30334558234950276256,0.10218186376165176721,0.01465972679853905399,0.10653231220967535053,0.19385836563127112342,-142.57444214765271794931,-0.00471543588679030831,-88.79430445993466491927,0.04046330279023865883
9,9_1,123,73,,,,81.96721311475410232106,91.50000000000000000000,0.97024801309065489274,0.00000000000000000000,0.87760983735483133472,32.00000000000000000000,0.83224372974193649988,14.00000000000000000000,0.63314138304327705065,8.00000000000000000000,0.54546299486554072899,78.00000000000000000000,1.73076923076923083755,0.38461538461538463674,0.57692307692307676081,0.57692307692307709388,1.73076923076923105960,0.92592592592592593004,1.66666666666666674068,0.92592592592592570799,1.85185185185185230416,1.11111111111111138250,1.11111111111111027228,0.37037037037037046083,0.37037037037037046083,0.55555555555555569125,1.11111111111111138250,26.00000000000000000000,0.00000000000000000000,1.15384615384615374367,1.53846153846153788081,1.15384615384615418776,1.15384615384615418776,1.29629629629629627985,1.48148148148148139924,6.29629629629629405940,0.92592592592592615208,0.00000000000000000000,0.00000000000000000000,0.00000000000000000000,0.00000000000000000000,0.00000000000000000000,0.00000000000000000000,13.00000000000000000000,1.53846153846153854694,0.96153846153846156408,0.19230769230769223510,2.30769230769230837552,0.00000000000000000000,0.00000000000000000000,0.55555555555555558023,1.29629629629629583576,3.33333333333333392545,3.33333333333333392545,1.11111111111111027228,0.37037037037037046083,0.00000000000000000000,0.00000000000000000000,0.00000000000000000000,9.00000000000000000000,0.19230769230769231837,0.96153846153846156408,1.92307692307692246203,1.92307692307692357225,0.00000000000000000000,0.00000000000000000000,0.00000000000000000000,0.00000000000000000000,0.92592592592592615208,2.22222222222222276500,3.14814814814814569743,2.22222222222222276500,0.92592592592592615208,0.55555555555555569125,0.00000000000000000000,37.00000000000000000000,0.38461538461538463674,0.96153846153846156408,2.30769230769230704325,1.34615384615384647837,0.00000000000000000000,0.00000000000000000000,0.37037037037037034981,0.92592592592592570799,1.66666666666666696273,2.03703703703703764560,2.96296296296296013395,1.66666666666666696273,0.37037037037037046083,0.00000000000000000000,0.00000000000000000000,28.00000000000000000000,0.04556682618473988783,0.02015774678537307282,-0.06118177068180832151,-0.18264805954304935698,-0.18543798246697543175,-0.09247193320909655179,-0.00955640253098829877,-0.03142792903859847886,0.00985341716123717092,0.04208752479052085133,0.15326864218088503966,0.23812463809074602139,0.28813025712200857065,0.34326335395866758304,0.36999450713859816098,0.41265096916484222955,0.46777849614447791771,0.48191549653310511436,0.49717197750612796003,0.53820676088232999312,0.61592871937104864966,0.68216477622269544590,0.76548860528821371929,0.78748099446826835823,0.85162556063163763476,0.24813939985058047766,0.74399999999999999467,0.22800000000000000822,0.51600000000000001421,0.10800000000000001266,0.07956689688908510916,0.29199999999999998179,-0.02907382866257696152,0.40000000000000002220,0.47784995013584458112,-0.00314030498679501724,0.17199999999999998623,0.34399999999999997247,1.95538565189317203874,0.30473098330241188414,0.69526901669758811586,0.14355287569573282891,0.38926252319109461153,0.53919294990723565242,0.23446196660482376828,0.46080705009276434758,0.13200000000000000622,0.17764378478664194505,0.35599999999999998312,0.48133116883116877638,0.48799999999999998934,0.65897495361781077694,2.70404411764705887578,0.10799999999999999878,0.14529220779220780591,0.17599999999999998979,0.23724489795918368706,0.28400000000000003020,0.38253710575139143746,1.63186813186813184373,0.08000000000000000167,0.10783858998144713048,0.09600000000000000200,0.13056586270871983757,0.17599999999999998979,0.23840445269016696805,1.19999999999999995559,0.89532517829044222513,10.35502663301468118107,14.72776722484550049330,10.67764525431196531713,11.25035181130512285108,25.40541247915746936314,0.08136234586662885460,0.91863765413337117316,0.58174728766506578204,0.41825271233493421796,0.30618130800583231999,0.69381869199416768001,0.31629560188915351038,0.55969256424205005018,0.00928951132168875753,-0.00981344142310217049,0.00432733213756081314,-0.00960655854721642610,0.00928825407222436117,0.08022740370734159077,0.59683583845338494811,0.87167832068650352717,0.71524094627522227796,0.49063841461502927244,-1.33335433438218409208,0.54577155137223198889,-1.15728678825818298570,1.36765523499238983440,28.63722073939080203786,46.30807820008395481182,35.53908508228608553736,27.72737501825607608907,0.01600000000000000033,0.09999999999999999167,0.11999999999999999556,0.07199999999999999456,0.06400000000000000133,0.02272727272727272790,0.13160946196660483487,0.16407699443413728546,0.09473562152133581382,0.08858998144712429412,0.21200000000000002176,0.11199999999999998845,0.00800000000000000017,0.07999999999999998779,0.14399999999999998912,0.28200371057513912154,0.15039424860853434218,0.01368274582560296757,0.10841836734693877098,0.19700834879406309286,-2.08949433248862304069,-0.00414772217776789021,-0.72183909749623320629,0.04923898811914259599
14,14_3,98,56,,,,83.79888268156423691835,89.50000000000000000000,0.97803008551813463978,0.00000000000000000000,0.91427233929975548765,33.00000000000000000000,0.89178341432244978559,13.00000000000000000000,0.68081953512138415618,8.00000000000000000000,0.71515226518303620651,3.00000000000000000000,1.52173913043478270524,0.65217391304347827052,0.43478260869565199531,0.65217391304347838155,1.73913043478260909147,0.00000000000000000000,1.05263157894736836262,2.28070175438596400852,2.10526315789473716933,1.22807017543859675612,0.70175438596491168664,0.35087719298245617638,0.52631578947368429233,0.52631578947368429233,1.22807017543859675612,23.00000000000000000000,0.00000000000000000000,0.86956521739130432369,1.30434782608695609696,0.86956521739130454574,1.95652173913043503362,1.92982456140350877583,1.22807017543859653408,5.43859649122806843025,1.40350877192982470554,0.00000000000000000000,0.00000000000000000000,0.00000000000000000000,0.00000000000000000000,0.00000000000000000000,0.00000000000000000000,11.00000000000000000000,2.17391304347826075372,0.21739130434782608092,0.43478260869565199531,0.86956521739130454574,1.30434782608695676309,0.00000000000000000000,0.52631578947368418131,1.05263157894736814058,3.15789473684210575399,3.50877192982456254100,1.75438596491227927210,0.00000000000000000000,0.00000000000000000000,0.00000000000000000000,0.00000000000000000000,5.00000000000000000000,1.30434782608695654105,0.65217391304347827052,0.43478260869565199531,1.52173913043478292728,1.08695652173913082095,0.00000000000000000000,0.00000000000000000000,0.00000000000000000000,0.00000000000000000000,0.35087719298245617638,2.28070175438596312034,4.91228070175438702449,2.45614035087719351225,0.00000000000000000000,0.00000000000000000000,3.00000000000000000000,0.86956521739130432369,0.65217391304347827052,3.04347826086956407821,0.43478260869565227287,0.00000000000000000000,0.00000000000000000000,0.00000000000000000000,0.00000000000000000000,1.57894736842105287700,3.50877192982456254100,2.45614035087719084771,1.57894736842105287700,0.87719298245614063525,0.00000000000000000000,0.00000000000000000000,78.00000000000000000000,0.04155972177117491645,-0.00436177270400140218,-0.12118863939363336280,-0.22093384232096843767,-0.20086082486337902830,-0.10011801022590423316,-0.00827866664322172117,-0.01918621045149450019,0.02187916801999091956,0.08758633173848393016,0.18550591365348101380,0.27832669380240909751,0.35990719554329642094,0.41050198147570410301,0.44488666689369038565,0.46335703660469174103,0.49956067611042920262,0.51288820313094496406,0.53487541107435720988,0.55253758101837080474,0.58853185244678030141,0.61690108495795470400,0.64280007619338741520,0.66286794780055113829,0.70372874458305112455,0.27666089317897446520,0.93599999999999994316,0.35999999999999998668,0.57600000000000006750,0.23599999999999998757,0.05823772989532732813,0.45999999999999996447,-0.02689944759141532638,0.60799999999999998490,0.44245843868128492682,-0.00572657172651161450,0.24799999999999999822,0.32799999999999995826,2.12394730394944009078,0.36690535491905351684,0.63309464508094648316,0.22688356164383560731,0.48186488169364882772,0.64920610211706097914,0.28230074719800746230,0.35079389788293902086,0.16000000000000000333,0.18212951432129514950,0.47199999999999997513,0.54179638854296396921,0.63200000000000000622,0.72392590286425906321,2.95000000000000017764,0.11999999999999999556,0.13659713574097134825,0.22000000000000000111,0.25607098381070980686,0.33999999999999996891,0.39266811955168118287,1.83333333333333348136,0.08799999999999999489,0.10017123287671232668,0.11200000000000000233,0.12749066002490661020,0.20000000000000001110,0.22766189290161892300,1.27272727272727270709,3.50500716218004804148,10.59024588381468845455,19.38069453808700615127,10.89851145571461543682,14.09525304599473649603,30.27920599380162514080,0.21804118234818037347,0.78195881765181951550,0.64261169167671661206,0.35738830832328338794,0.31206720250214575740,0.68793279749785418709,0.52362071411005928212,0.44276679457285306185,0.00587345978661374390,-0.00603807753316965012,-0.00180858593322241745,-0.00332201412537158625,0.00234956400577873703,0.09439121037447750773,0.75649146613171647235,0.91244119456510097699,0.88426956366697029299,0.57005668088625049972,-1.23986905991797158322,-0.38055597760937914797,-0.69457898507625370765,0.43852213669077971803,76.42787758384911001031,89.76242729899554717576,87.51162231076982322975,54.91269433947651634753,0.01200000000000000025,0.25200000000000000178,0.11600000000000000588,0.01600000000000000033,0.10799999999999999878,0.01704545454545454419,0.23832503113325032018,0.13768679950186799021,0.01821295143212951426,0.11955168119551680406,0.34799999999999997602,0.09600000000000000200,0.02000000000000000042,0.03600000000000000422,0.14399999999999998912,0.34985990037359898652,0.11153486924034869410,0.02615193026151930306,0.04436488169364881384,0.16391656288916561790,-0.60325623392311844562,-0.00356486158597418704,-0.16473409723233869983,0.00931204660534206037
14,14_2,98,56,,,,94.93670886075949510996,79.00000000000000000000,0.97616993538578922252,0.00000000000000000000,0.92202485009613588396,36.00000000000000000000,0.82581418857527055799,11.00000000000000000000,0.88656191330066813627,5.00000000000000000000,0.73674107555194612296,74.00000000000000000000,1.45833333333333325932,0.62500000000000000000,0.62499999999999977796,0.62500000000000011102,1.66666666666666696273,0.00000000000000000000,0.00000000000000000000,2.85714285714285631812,2.32142857142857206298,1.25000000000000022204,0.71428571428571363544,0.35714285714285720630,0.53571428571428580945,0.71428571428571441260,1.25000000000000022204,24.00000000000000000000,0.00000000000000000000,0.83333333333333337034,1.24999999999999955591,1.04166666666666696273,1.87500000000000022204,1.96428571428571419055,1.42857142857142860315,1.96428571428571352442,4.64285714285714412597,0.00000000000000000000,0.00000000000000000000,0.00000000000000000000,0.00000000000000000000,0.00000000000000000000,0.00000000000000000000,10.00000000000000000000,2.29166666666666651864,0.41666666666666668517,0.20833333333333325932,0.62500000000000011102,1.45833333333333370341,0.17857142857142857539,0.53571428571428569843,1.24999999999999955591,2.14285714285714323779,4.64285714285714412597,1.24999999999999888978,0.00000000000000000000,0.00000000000000000000,0.00000000000000000000,0.00000000000000000000,5.00000000000000000000,0.83333333333333337034,0.83333333333333337034,0.83333333333333303727,1.45833333333333370341,1.04166666666666696273,0.00000000000000000000,0.00000000000000000000,0.00000000000000000000,0.17857142857142860315,2.67857142857142926928,3.39285714285713968508,2.85714285714285765039,0.89285714285714312677,0.00000000000000000000,0.00000000000000000000,1.00000000000000000000,0.00000000000000000000,0.62500000000000000000,1.45833333333333281523,1.87500000000000022204,1.04166666666666696273,0.17857142857142857539,0.71428571428571430157,0.71428571428571407953,1.07142857142857161890,3.57142857142857250707,2.85714285714285454176,0.53571428571428580945,0.35714285714285720630,0.00000000000000000000,0.00000000000000000000,13.00000000000000000000,0.06286245609558251124,0.01049204095280229475,-0.12817200106753551259,-0.22362210124735781847,-0.19122411030984309832,-0.08983583352837960778,-0.00382066061211988476,-0.01214910928993309484,0.02729044109826016251,0.07553715664625884618,0.16494372178187582945,0.25593710092034022141,0.33033087038308650563,0.39017276671718403858,0.42888660290308527889,0.46222525531719638181,0.49599768240278008236,0.51727256847674707441,0.53220444475794193018,0.54774010277960782922,0.55135623045408799214,0.57854109520085850171,0.59348177869708929055,0.59315388395453116921,0.64429972093690923707,0.21729234627322152607,0.82400000000000006573,0.21599999999999999756,0.60799999999999998490,0.08399999999999999134,0.06966064190239337761,0.32400000000000001021,-0.03178090245466275165,0.49599999999999999645,0.36826574891308871962,-0.00675474745585089020,0.28000000000000002665,0.32799999999999995826,2.85447094743321239108,0.26463031687125321278,0.73536968312874684273,0.10338757255685603054,0.39646969264440001801,0.60196022456941666867,0.33732990769816351140,0.39803977543058333133,0.14399999999999998912,0.17642021124750212335,0.44800000000000000933,0.55742696736130936674,0.59200000000000008171,0.73384717860881143459,3.11111111111111116045,0.11200000000000000233,0.13721571985916833358,0.18800000000000000044,0.23080216956894089586,0.29999999999999998890,0.36801788942810925720,1.67857142857142838110,0.08000000000000000167,0.09801122847083451606,0.10799999999999999878,0.13279094109810637980,0.18800000000000000044,0.23080216956894089586,1.35000000000000008882,1.03844095685887038982,12.04741301210229664775,22.85623260355749408745,9.70547872989461168913,13.08585396896116748167,32.56171133345210932930,0.07941469245694712797,0.92058530754305278876,0.70787240748280666480,0.29212759251719333520,0.28725655844851005760,0.71274344155148994240,0.40490462281712669146,0.48718879345583210316,0.00962177688586605614,-0.00547772047028019515,-0.00205478150327359499,-0.00355821774516434930,0.00290109954357470334,0.08832485697119424328,0.69942112324213001617,0.97602076575056018193,0.94598267254111145785,0.55636053458435641428,-0.58239446736985645003,-0.22165441113004377693,-0.37192384503838560317,0.30294054711890938680,11.19957227319366310780,14.93205026318999806278,14.62713767225688243911,8.56313402578967775014,0.02400000000000000050,0.08399999999999999134,0.12399999999999999911,0.01600000000000000033,0.11999999999999999556,0.02845180321629079898,0.10529070320677513806,0.14953849081739462035,0.01865068036920734806,0.14891997335617090936,0.19200000000000000400,0.10799999999999999878,0.01600000000000000033,0.03200000000000000067,0.15199999999999999623,0.23617851365496239646,0.13088781044818725841,0.01865068036920734806,0.03730136073841469613,0.18622133409458560549,-0.29175675832033642898,-0.00399060928215070557,0.01118378879857298558,0.00678061139466335384
14,14_1,98,56,,,,68.18181818181818698577,110.00000000000000000000,0.96868622834773510100,79.00000000000000000000,0.85276777499074474242,30.00000000000000000000,0.81123664669999995258,15.00000000000000000000,0.88450583929996895449,9.00000000000000000000,0.62940592603931255766,7.00000000000000000000,0.27777777777777779011,1.38888888888888883955,0.83333333333333303727,0.83333333333333348136,1.66666666666666696273,0.00000000000000000000,1.29032258064516125451,1.77419354838709608657,1.61290322580645217876,1.61290322580645217876,0.96774193548387021924,0.48387096774193560922,0.48387096774193560922,0.64516129032258073828,1.12903225806451645852,18.00000000000000000000,0.00000000000000000000,0.83333333333333337034,1.11111111111111071637,1.11111111111111138250,1.94444444444444486386,1.77419354838709675271,2.74193548387096752705,3.87096774193548265330,1.61290322580645217876,0.00000000000000000000,0.00000000000000000000,0.00000000000000000000,0.00000000000000000000,0.00000000000000000000,0.00000000000000000000,8.00000000000000000000,2.22222222222222232091,0.27777777777777779011,0.27777777777777767909,0.83333333333333348136,1.38888888888888928363,0.00000000000000000000,0.32258064516129031363,0.96774193548387066333,3.87096774193548487375,3.22580645161290435752,1.61290322580645018036,0.00000000000000000000,0.00000000000000000000,0.00000000000000000000,0.00000000000000000000,4.00000000000000000000,0.55555555555555558023,0.55555555555555558023,1.11111111111111071637,1.66666666666666696273,1.11111111111111138250,0.00000000000000000000,0.00000000000000000000,0.00000000000000000000,0.64516129032258073828,1.61290322580645217876,2.74193548387096530661,2.41935483870967793507,2.25806451612903291704,0.32258064516129036914,0.00000000000000000000,1.00000000000000000000,0.27777777777777779011,0.83333333333333337034,1.94444444444444375364,1.66666666666666696273,0.27777777777777784562,0.00000000000000000000,0.16129032258064515681,0.48387096774193533166,1.93548387096774243687,3.22580645161290435752,3.22580645161290036071,0.80645161290322608938,0.16129032258064518457,0.00000000000000000000,0.00000000000000000000,11.00000000000000000000,-0.01152061745735197956,-0.05070755340857155402,-0.15508469268758562354,-0.22001168033783224942,-0.22264103916727595589,-0.14147718875499809554,-0.01674434884908881926,-0.02320938490361263914,0.00490458529362176703,0.08070183028757245414,0.16130015570839023598,0.23826044655317632492,0.28590307056309405276,0.32950361079212131532,0.36174324452684825104,0.38548347870726340503,0.39943873073847235844,0.42878555839255977356,0.44913306496724625383,0.49497338711614591311,0.52024369818592708370,0.55707773512964064988,0.59409526695873204893,0.64934793267631207847,0.70127709134002702562,0.32534275586339927999,0.92400000000000004352,0.21599999999999999756,0.70799999999999996270,0.09199999999999999845,0.04586510743535493484,0.32400000000000001021,-0.02050294470005042946,0.52000000000000001776,0.50523182082807760462,-0.00420079964173944442,0.30399999999999999245,0.40400000000000002576,1.92631284712213846078,0.23377061469265367211,0.76622938530734630014,0.09955022488755621568,0.35067466266866564872,0.56285607196401798991,0.32908545727136429004,0.43714392803598201009,0.21599999999999999756,0.23377061469265367211,0.58799999999999996714,0.63688155922038980350,0.80400000000000004796,0.87065217391304350336,2.72222222222222232091,0.14400000000000001688,0.15580959520239878735,0.40800000000000002931,0.44224137931034479543,0.55199999999999993516,0.59805097451274358278,2.89783281733746100883,0.10000000000000000555,0.10820839580209895558,0.14000000000000001332,0.15153673163418290848,0.23999999999999999112,0.25974512743628186406,1.40384615384615374367,2.88543576969279458311,10.26845773152993324118,22.12402195080843370079,11.42589377703144393195,13.15389350122272915655,33.54991572783988118545,0.18548726306460106006,0.81451273693539882892,0.65641393429604266707,0.34358606570395727742,0.27418367903827489673,0.72581632096172510327,0.32115918387862363303,0.48984985521755530780,0.00518714292640998220,-0.00395030028176129866,-0.00120908225903737510,-0.00224384753820966454,0.00263386789767469653,0.41788989287446676180,0.82559285571904950096,0.95952252257259351698,0.94621448361077464817,0.50865181650298119109,-0.84300099183343757403,-0.25204884253321835352,-0.50101344997539620785,0.53944409988769059794,1.98123253114653907758,2.30617106485175371589,2.27459897221615392482,1.21569635565131806132,0.03200000000000000067,0.08799999999999999489,0.09600000000000000200,0.01600000000000000033,0.26000000000000000888,0.03474512743628185851,0.09516491754122938240,0.10389805097451274007,0.01731634182908545899,0.28137181409295353163,0.18399999999999999689,0.09600000000000000200,0.00000000000000000000,0.01600000000000000033,0.27600000000000002309,0.19902548725637181359,0.10386056971514243119,0.00003748125937031496,0.01735382308845577135,0.29872563718140932032,-0.62938279921251361060,-0.00293020720965981142,-0.08993869932482295715,0.00210747393458737484
16,16_1,137,80,,,,77.31958762886598890418,97.00000000000000000000,0.97773851765917874079,79.00000000000000000000,0.85344673931752801366,30.00000000000000000000,0.80430389157212067719,15.00000000000000000000,0.87578558414814522415,9.00000000000000000000,0.62499259526760320149,7.00000000000000000000,1.50000000000000000000,0.50000000000000000000,0.49999999999999983347,0.75000000000000022204,1.75000000000000044409,0.83333333333333337034,1.50000000000000000000,1.83333333333333259318,1.16666666666666696273,1.00000000000000022204,0.83333333333333259318,0.66666666666666674068,0.50000000000000011102,0.50000000000000011102,1.16666666666666696273,20.00000000000000000000,0.00000000000000000000,1.25000000000000000000,0.99999999999999966693,1.25000000000000044409,1.50000000000000044409,1.83333333333333325932,4.16666666666666696273,3.99999999999999866773,0.00000000000000000000,0.00000000000000000000,0.00000000000000000000,0.00000000000000000000,0.00000000000000000000,0.00000000000000000000,0.00000000000000000000,9.00000000000000000000,2.00000000000000000000,0.50000000000000000000,0.24999999999999991673,1.00000000000000022204,1.25000000000000044409,0.00000000000000000000,0.16666666666666665741,0.49999999999999983347,3.66666666666666740682,4.66666666666666785090,0.99999999999999922284,0.00000000000000000000,0.00000000000000000000,0.00000000000000000000,0.00000000000000000000,5.00000000000000000000,0.75000000000000000000,0.50000000000000000000,0.74999999999999977796,1.00000000000000022204,2.00000000000000044409,0.00000000000000000000,0.00000000000000000000,0.00000000000000000000,0.00000000000000000000,0.16666666666666668517,0.99999999999999922284,6.00000000000000088818,2.33333333333333392545,0.50000000000000011102,0.00000000000000000000,3.00000000000000000000,0.25000000000000000000,1.00000000000000000000,0.49999999999999983347,2.50000000000000088818,0.75000000000000022204,0.00000000000000000000,0.00000000000000000000,0.00000000000000000000,1.00000000000000022204,3.16666666666666696273,3.83333333333332992865,1.50000000000000022204,0.50000000000000011102,0.00000000000000000000,0.00000000000000000000,13.00000000000000000000,0.00403200696569548395,-0.03241536396659797092,-0.14004405122814955753,-0.23489243564256345742,-0.22687392154137270284,-0.13065859816462860321,-0.01574589901918653501,-0.03027218224744010477,-0.00263998839955175649,0.06574986545373906477,0.14892965280485898072,0.22343920990585322550,0.27851041384312358318,0.32739930836229447220,0.37849706565913809886,0.42919066490875101838,0.47430729143905309142,0.52150272070232284172,0.56096499704504265704,0.59718463262873777708,0.61933911934907626140,0.64779999071409199995,0.69550239600861973877,0.75154105944650051452,0.81404037300232978680,0.24793410736305310227,0.79600000000000004086,0.19600000000000000755,0.59999999999999997780,0.07999999999999998779,0.07291803004190719473,0.28800000000000003375,-0.02712723129781741127,0.47599999999999997868,0.41063967029933223785,-0.01021169939503221991,0.28000000000000002665,0.32000000000000000666,2.42305767942307248575,0.24616161616161616466,0.75383838383838375208,0.10045454545454546302,0.36176767676767673798,0.59797979797979794458,0.35181818181818180769,0.40202020202020205542,0.14000000000000001332,0.17590909090909090384,0.44400000000000000577,0.55742424242424237768,0.58400000000000007461,0.73333333333333339255,3.18627450980392179503,0.10399999999999999523,0.13065656565656566523,0.22400000000000000466,0.28136363636363637131,0.32800000000000001377,0.41202020202020200879,2.15384615384615418776,0.08000000000000000167,0.10050505050505051385,0.11200000000000000233,0.14070707070707072495,0.19200000000000000400,0.24121212121212121104,1.39999999999999991118,1.31344523088319276027,10.33242938468215221803,22.58631705663103872439,7.78661348809897724266,11.64587461556534542240,30.37293054473001774340,0.10847133601474431841,0.89152866398525565383,0.74254650759879670119,0.25745349240120340983,0.27663267693944421088,0.72336732306055573360,0.38104298768540201259,0.54534230863367505471,0.01228920395624885642,-0.00741206491926621469,-0.00193951200323477790,-0.00395327727752464719,0.00306980277001078772,0.28873131992061323858,0.77572414571457892762,0.98665560048931877368,0.93020033868742091343,0.64189118682347956479,-0.60757533201424651637,-0.16776046067015104590,-0.33613977744624362609,0.25649458140266490069,2.68158513799283948487,3.43199787932934974322,3.22641724693035669702,2.22932744326846599137,0.04399999999999999745,0.05999999999999999778,0.08000000000000000167,0.04800000000000000100,0.10000000000000000555,0.05520202020202021054,0.07545454545454545470,0.10050505050505051385,0.06010101010101010638,0.12570707070707071162,0.15199999999999999623,0.09199999999999999845,-0.01200000000000000025,0.03600000000000000422,0.13600000000000000977,0.19095959595959594024,0.11550505050505049942,-0.01499999999999999944,0.04510101010101010693,0.17080808080808079774,-0.36016967530051668955,-0.00451763444527500217,-0.10367509389785177498,0.00826303418415158183
16,16_2,137,80,,,,77.72020725388600226324,96.50000000000000000000,0.97977715062190728901,0.00000000000000000000,0.86874470993032493205,30.00000000000000000000,0.86911454956072986544,14.00000000000000000000,0.80340405263057435015,10.00000000000000000000,0.60148085170857246151,5.00000000000000000000,1.59090909090909082835,0.45454545454545453032,0.45454545454545436378,0.68181818181818198976,1.81818181818181856535,1.37931034482758629878,2.06896551724137944817,1.20689655172413745632,1.03448275862068994613,0.68965517241379326041,0.86206896551724065958,0.68965517241379326041,0.34482758620689663021,0.51724137931034497306,1.20689655172413812245,22.00000000000000000000,0.00000000000000000000,1.36363636363636353543,0.90909090909090872756,1.13636363636363668661,1.59090909090909127244,1.72413793103448265143,4.31034482758620729470,3.96551724137930872160,0.00000000000000000000,0.00000000000000000000,0.00000000000000000000,0.00000000000000000000,0.00000000000000000000,0.00000000000000000000,0.00000000000000000000,10.00000000000000000000,2.04545454545454541417,0.45454545454545453032,0.22727272727272718189,0.90909090909090928267,1.36363636363636397952,0.00000000000000000000,0.00000000000000000000,0.86206896551724110367,1.37931034482758652082,5.86206896551724199185,1.89655172413792927344,0.00000000000000000000,0.00000000000000000000,0.00000000000000000000,0.00000000000000000000,6.00000000000000000000,0.90909090909090906063,0.45454545454545453032,0.45454545454545436378,1.13636363636363668661,2.04545454545454585826,0.00000000000000000000,0.00000000000000000000,0.00000000000000000000,0.00000000000000000000,0.00000000000000000000,0.86206896551724065958,2.93103448275862099592,5.17241379310344928655,0.68965517241379326041,0.34482758620689663021,32.00000000000000000000,1.13636363636363646457,1.36363636363636353543,1.13636363636363602048,0.90909090909090928267,0.45454545454545464134,0.00000000000000000000,0.00000000000000000000,0.00000000000000000000,0.86206896551724165878,1.72413793103448331756,4.82758620689654804892,1.89655172413793149389,0.51724137931034497306,0.17241379310344831510,0.00000000000000000000,14.00000000000000000000,0.01961202539086486993,-0.03398472217578253629,-0.15095375630626123309,-0.25684191745381979022,-0.22729480537151508512,-0.11335226480223797862,-0.01250113916776186308,-0.03084735285069949845,0.00530187853569562273,0.07474822383129170467,0.16790587438508866591,0.23411964789108830054,0.29205655353350024050,0.33741411970085311012,0.40741052833074475892,0.46495363906171960355,0.52560089198959625278,0.58094591950239748979,0.64240796195909100064,0.67678823607853555444,0.71236296876833671288,0.74051268274271253578,0.79765953664177435822,0.83399673756377279421,0.92239246969975141610,0.19170189494542444475,0.76400000000000001243,0.20000000000000001110,0.56400000000000005684,0.08399999999999999134,0.07403973938690289192,0.28000000000000002665,-0.03009549706667530300,0.45600000000000001643,0.34024076738029507272,-0.01264719363536084829,0.25600000000000000533,0.30799999999999999600,2.65783898062215762081,0.26178728070175438791,0.73821271929824561209,0.10997807017543859143,0.36650219298245612087,0.59687500000000004441,0.33508771929824560099,0.40312500000000001110,0.13200000000000000622,0.17275219298245614308,0.32400000000000001021,0.42412280701754390133,0.45600000000000001643,0.59687500000000004441,2.45772058823529437888,0.10399999999999999523,0.13612938596491228060,0.19600000000000000755,0.25657894736842101757,0.29999999999999998890,0.39270833333333332593,1.88461538461538458122,0.08000000000000000167,0.10471491228070176072,0.10399999999999999523,0.13612938596491228060,0.18399999999999999689,0.24084429824561404132,1.30000000000000004441,0.95324877803230934070,9.97718235219519300472,19.79160259603341387447,5.81589656104562813255,10.93043113022750034702,25.60749915707904023066,0.08748543881703688130,0.91251456118296314646,0.77285242485275273960,0.22714757514724731591,0.29904484279929599566,0.70095515720070400434,0.37002056636884800289,0.57485561581403921139,0.00992230827458417952,-0.00878078919824265558,-0.00133448140970920948,-0.00443792895913336372,0.00376698603204095317,0.13684965166505352885,0.71629523006207551639,0.84618617984643773600,0.77006750722321060110,0.51419591935245878567,-0.88404945982389426806,-0.13779741316763516323,-0.44729572384284715936,0.38070715865529858313,5.23663273826323028004,6.18708635379739035898,5.63222214211845795262,3.75935153243778907850,0.03600000000000000422,0.07199999999999999456,0.12800000000000000266,0.02800000000000000058,0.08399999999999999134,0.04714912280701753777,0.09424342105263158742,0.16748903508771928461,0.03667763157894736448,0.10992324561403507555,0.16400000000000000688,0.09199999999999999845,0.03600000000000000422,0.06400000000000000133,0.14799999999999999267,0.21463815789473683626,0.12039473684210526272,0.04709429824561403577,0.08377192982456140025,0.19369517543859648967,-0.67966348146871047309,-0.00403394180259709391,-0.29895632281341194547,0.02744876229698277673
16,16_3,137,80,,,,90.36144578313253816759,83.00000000000000000000,0.98387247531133181777,79.00000000000000000000,0.93653777922544279022,31.00000000000000000000,0.75702265442679395058,11.00000000000000000000,0.82340497587088223863,3.00000000000000000000,0.82974535724699616246,1.00000000000000000000,0.86956521739130432369,0.86956521739130432369,0.43478260869565199531,0.86956521739130454574,1.95652173913043503362,1.22807017543859653408,1.22807017543859653408,1.40350877192982403940,1.22807017543859675612,1.05263157894736858466,0.87719298245613963605,0.70175438596491235277,0.52631578947368429233,0.52631578947368429233,1.22807017543859675612,23.00000000000000000000,0.00000000000000000000,0.21739130434782608092,1.73913043478260798125,1.30434782608695676309,1.73913043478260909147,0.00000000000000000000,3.50877192982456120873,4.91228070175438435996,1.57894736842105287700,0.00000000000000000000,0.00000000000000000000,0.00000000000000000000,0.00000000000000000000,0.00000000000000000000,0.00000000000000000000,9.00000000000000000000,2.39130434782608691791,0.43478260869565216185,0.21739130434782599766,0.65217391304347838155,1.30434782608695676309,0.00000000000000000000,1.22807017543859653408,0.35087719298245600985,1.22807017543859675612,5.61403508771929882215,1.05263157894736747444,0.35087719298245617638,0.17543859649122808819,0.00000000000000000000,0.00000000000000000000,5.00000000000000000000,0.86956521739130432369,0.65217391304347827052,0.43478260869565199531,1.95652173913043503362,1.08695652173913082095,0.00000000000000000000,0.00000000000000000000,0.00000000000000000000,0.00000000000000000000,0.52631578947368429233,3.15789473684210220128,3.50877192982456254100,1.75438596491228127050,1.05263157894736858466,0.00000000000000000000,2.00000000000000000000,0.43478260869565216185,0.43478260869565216185,0.86956521739130399062,1.73913043478260909147,1.52173913043478292728,0.00000000000000000000,0.00000000000000000000,0.35087719298245600985,0.52631578947368429233,2.63157894736842168371,2.80701754385964674654,1.92982456140350921991,1.22807017543859675612,0.52631578947368429233,0.00000000000000000000,14.00000000000000000000,0.02571583608532446164,-0.01910365825569402404,-0.13147270010515099692,-0.20820032147963585256,-0.17497696381225180673,-0.08496092834291993356,-0.01240779508065664380,-0.03935164400080200242,-0.00328061852034602225,0.05472952815909183644,0.14919072729837598579,0.20051506717130351820,0.25758189633556255460,0.29726721630387853423,0.34520851533786622856,0.39960033948112139157,0.43777587080355501170,0.48232850668960691731,0.52539260441220603237,0.57930232149138072284,0.63026481177517157395,0.66219545823397485407,0.73901147264474886800,0.79923329977689072656,0.91168747951767659110,0.25664102586834647290,0.77600000000000002309,0.22800000000000000822,0.54800000000000004263,0.07599999999999999811,0.04933400546433477918,0.30799999999999999600,-0.02556796291688789857,0.41599999999999998090,0.59549989949009329848,-0.01023692998675329591,0.18800000000000000044,0.35999999999999998668,1.64632957171000171570,0.29393617021276596812,0.70606382978723403188,0.09787234042553191737,0.39744680851063829419,0.53627659574468089509,0.24234042553191487146,0.46372340425531910491,0.22800000000000000822,0.29393617021276596812,0.46399999999999996803,0.60074468085106391690,0.69199999999999994849,0.89468085106382977401,2.04002463054187188618,0.15199999999999999623,0.19606382978723402299,0.26800000000000001599,0.34712765957446806153,0.42000000000000003997,0.54319148936170214004,1.76315789473684203514,0.11200000000000000233,0.14446808510638298184,0.11199999999999998845,0.14478723404255319784,0.22400000000000000466,0.28925531914893620744,1.00000000000000000000,1.74501327069638678680,12.10629130044535628485,14.63840146427583022160,9.50147729068057422808,13.85130457114174262756,24.13987875495640622603,0.10899021607346205676,0.89100978392653784610,0.61402505935804974069,0.38597494064195025931,0.36370735303273837857,0.63629264696726162143,0.20678068840143146168,0.56217846010237149112,0.00820417405546647327,-0.00293337530063986218,0.00018240623831933256,-0.00363076556934921468,0.00335913043567293013,0.42454342988980187101,0.74145451393125227924,0.95149134189535577999,0.87451021818918106554,0.70971784807619564539,-0.34054564260859754299,0.02906600595418875471,-0.45761113945125975189,0.41253120397618192605,1.76722863035858113179,2.25448467381009187704,2.06702459446180508706,1.68448818884567996790,0.04399999999999999745,0.05600000000000000117,0.07599999999999999811,0.10399999999999999523,0.05599999999999999423,0.05627659574468085735,0.07319148936170212505,0.09787234042553191737,0.13414893617021278471,0.07159574468085105892,0.18399999999999999689,0.12800000000000000266,-0.05200000000000000455,0.05200000000000000455,0.10799999999999999878,0.23765957446808511078,0.16446808510638297185,-0.06659574468085106835,0.06755319148936170248,0.13914893617021278915,-0.32453171308770850656,-0.00274054943370300938,0.08799949088847340561,0.03005695331801903208
17,17_2,117,70,,,,82.41758241758242320429,91.00000000000000000000,0.97669689794150704731,79.00000000000000000000,0.91748918406790913593,30.00000000000000000000,0.86942201394443108242,13.00000000000000000000,0.76340638329553500707,71.00000000000000000000,0.64834462818622795588,37.00000000000000000000,1.13636363636363646457,0.68181818181818176772,0.68181818181818154567,0.68181818181818198976,1.81818181818181856535,1.20689655172413790041,1.20689655172413790041,1.55172413793103403101,1.55172413793103469715,1.72413793103448331756,0.51724137931034441795,0.51724137931034497306,0.34482758620689663021,0.34482758620689663021,1.03448275862068994613,22.00000000000000000000,0.00000000000000000000,0.45454545454545453032,1.36363636363636309135,1.13636363636363668661,2.04545454545454585826,1.20689655172413790041,0.68965517241379314939,2.24137931034482651427,5.86206896551724199185,0.00000000000000000000,0.00000000000000000000,0.00000000000000000000,0.00000000000000000000,0.00000000000000000000,0.00000000000000000000,10.00000000000000000000,2.04545454545454541417,0.45454545454545453032,0.45454545454545436378,0.45454545454545464134,1.59090909090909127244,0.00000000000000000000,0.86206896551724132571,2.24137931034482651427,3.10344827586206939429,2.24137931034482829062,0.51724137931034441795,0.51724137931034497306,0.51724137931034497306,0.00000000000000000000,0.00000000000000000000,4.00000000000000000000,0.00000000000000000000,2.04545454545454541417,0.90909090909090872756,1.36363636363636397952,0.68181818181818198976,0.00000000000000000000,0.34482758620689657469,0.17241379310344820408,2.41379310344827624490,2.93103448275862099592,1.89655172413792927344,0.68965517241379326041,1.03448275862068994613,0.17241379310344831510,0.34482758620689663021,32.00000000000000000000,0.22727272727272726516,1.81818181818181812126,2.95454545454545325356,0.00000000000000000000,0.00000000000000000000,0.17241379310344828735,0.17241379310344828735,0.68965517241379281632,1.55172413793103469715,3.10344827586206939429,1.72413793103448131916,1.20689655172413812245,1.03448275862068994613,0.34482758620689663021,0.00000000000000000000,79.00000000000000000000,0.02008093391382352599,-0.04186002173034940321,-0.14625553683569775254,-0.21948368084895303332,-0.19213166941925866049,-0.09695561868659122173,-0.00821575710884215639,-0.00614387977318450566,0.06135712369712226916,0.17260156452544256345,0.30018786165647454167,0.36641572341954742331,0.39606799360051303527,0.40886301127259816468,0.42119966734993663504,0.44010460120093869429,0.49042277804768330540,0.52051627917288256775,0.54342944230771172975,0.57380295054419527823,0.62036809563401473788,0.67025760896610475648,0.72211379129928887632,0.77798594620955818790,0.88888398331076512449,0.25280697301993559911,0.78800000000000003375,0.22000000000000000111,0.56799999999999994937,0.09600000000000000200,0.05652045724202348076,0.29999999999999998890,-0.03708378816835711245,0.44799999999999995381,0.47180730978900253803,-0.00125303923972974740,0.22800000000000000822,0.33999999999999996891,2.09550187513687591334,0.27916924345495774951,0.72083075654504225049,0.12172747887033601166,0.38069470212327349845,0.56869717584003298683,0.28952793238507523732,0.43130282415996701317,0.18800000000000000044,0.23855905998763143883,0.46000000000000001998,0.58415790558647695541,0.64799999999999990941,0.82271696557410844974,2.45471014492753614178,0.13600000000000000977,0.17259327973613686202,0.21599999999999999756,0.27396413110698825122,0.35199999999999997957,0.44655741084312516875,1.58823529411764718944,0.09600000000000000200,0.12183055040197897367,0.08799999999999999489,0.11167800453514739600,0.18399999999999999689,0.23350855493712635580,0.91666666666666662966,2.64871472797783580333,10.82182621630551366820,15.96054428469637187504,8.76610468296614442352,13.47054094428334991562,24.72664896766251629856,0.17831204997420810332,0.82168795002579186892,0.65713819954214436336,0.34286180045785569215,0.35281648172846874489,0.64718351827153131062,0.44976124130459949058,0.49912021626326186219,0.00799941177802601655,-0.00669190248291667844,-0.00022770332065952248,-0.00609495089853973049,0.00744582828436457511,0.24442288841533491017,0.77776072335567691951,0.96345934918573883365,0.84814488473418081504,0.55482182827777970502,-0.98473984090443478223,0.01366241556610395952,-0.80656759803841937551,0.94021057067512026073,3.18899149636332968072,3.94619566817580036400,3.47520544309557788409,2.27364212701948797957,0.01200000000000000025,0.09600000000000000200,0.07599999999999999811,0.08400000000000000522,0.07999999999999998779,0.01525458668315811048,0.12172747887033601166,0.09637188208616778717,0.10678210678210678375,0.10147392290249432345,0.20800000000000001821,0.11199999999999998845,-0.03600000000000000422,0.04800000000000000100,0.12800000000000000266,0.26391465677179959393,0.14218717790146362390,-0.04581529581529581591,0.06096681096681096090,0.16244073386930529823,-1.13204522910723959228,-0.00378179624064870108,-0.19183465843211941482,0.03957673184211250861
17,17_3,117,70,,,,72.81553398058251502789,103.00000000000000000000,0.96654426592985420719,79.00000000000000000000,0.88338943255732260695,31.00000000000000000000,0.78079068417909347488,16.00000000000000000000,0.67771168783522250934,10.00000000000000000000,0.78845507442613294025,7.00000000000000000000,1.00000000000000000000,1.25000000000000000000,0.74999999999999977796,0.50000000000000011102,1.50000000000000044409,0.33333333333333331483,1.50000000000000000000,2.16666666666666563046,1.33333333333333348136,1.50000000000000022204,0.83333333333333259318,0.33333333333333337034,0.33333333333333337034,0.50000000000000011102,1.16666666666666696273,20.00000000000000000000,0.00000000000000000000,1.00000000000000000000,0.99999999999999966693,1.25000000000000044409,1.75000000000000044409,1.33333333333333325932,0.83333333333333337034,3.49999999999999911182,4.33333333333333392545,0.00000000000000000000,0.00000000000000000000,0.00000000000000000000,0.00000000000000000000,0.00000000000000000000,0.00000000000000000000,11.00000000000000000000,1.50000000000000000000,0.50000000000000000000,0.49999999999999983347,1.25000000000000044409,1.25000000000000044409,0.00000000000000000000,0.50000000000000000000,1.16666666666666629659,3.33333333333333436954,2.66666666666666696273,1.66666666666666518637,0.66666666666666674068,0.00000000000000000000,0.00000000000000000000,0.00000000000000000000,7.00000000000000000000,0.50000000000000000000,1.00000000000000000000,0.49999999999999983347,2.25000000000000044409,0.75000000000000022204,0.00000000000000000000,0.00000000000000000000,0.33333333333333320381,0.66666666666666674068,2.33333333333333392545,2.33333333333333126092,1.83333333333333370341,2.16666666666666696273,0.33333333333333337034,0.00000000000000000000,6.00000000000000000000,0.50000000000000000000,1.75000000000000000000,2.74999999999999911182,0.00000000000000000000,0.00000000000000000000,0.00000000000000000000,0.00000000000000000000,0.66666666666666640761,2.83333333333333392545,2.33333333333333392545,2.33333333333333126092,0.66666666666666674068,0.83333333333333359239,0.16666666666666668517,0.16666666666666668517,76.00000000000000000000,0.00124089619114176562,-0.00935145006160271672,-0.05783156226077237894,-0.15145261022700007292,-0.17065218988687175239,-0.10266144253813430653,-0.01049771259267302977,-0.01982081598269225947,0.01688345996079248373,0.12012324633689716591,0.23946228247405437761,0.33023669784797038407,0.36502591269387812956,0.39610044030027780071,0.40550153898687973930,0.43727242434342150634,0.48994203840481620471,0.52562112460816945436,0.55324860577401246964,0.58410213528633780911,0.59526965424598654586,0.61392002631924880163,0.64870915337067480699,0.69797601893972816001,0.75052886839208787784,0.25747265352206111233,0.92799999999999993605,0.27599999999999996758,0.65200000000000002398,0.16799999999999998268,0.05410302279762430055,0.38400000000000000799,-0.03036529704128837492,0.54000000000000003553,0.49551988911514777136,-0.00275048950780415469,0.26400000000000001243,0.38800000000000001155,2.01870310176929113055,0.29441132637853950627,0.70558867362146049373,0.17749627421758568113,0.41177347242921014114,0.57965722801788377438,0.28524590163934426812,0.42034277198211622562,0.19600000000000000755,0.21244411326378537241,0.52800000000000002487,0.56512667660208648623,0.72399999999999997691,0.77757078986587191416,2.73411371237458222794,0.11599999999999999201,0.12555886736214605381,0.26400000000000001243,0.28301043219076005286,0.38000000000000000444,0.40856929955290610668,2.29047619047619033239,0.07999999999999998779,0.08688524590163934636,0.11599999999999999201,0.12511177347242918856,0.19600000000000000755,0.21199701937406856267,1.46969696969696972388,2.71630855923905345506,9.19660583594309066768,19.92602558115700972508,10.28801742296385945963,11.91291439518214367865,30.21404300412087096106,0.20707626423150524153,0.79292373576849484174,0.65732363068721144650,0.34267636931278855350,0.27695596240237141394,0.72304403759762858606,0.51158497414465664566,0.46390645214455183964,0.00250043844677523552,-0.00642094311973906429,0.00063394538841787806,-0.00480187281931804266,0.00469536340534887353,0.28906478920782024966,0.89035173869927353163,0.97516749433735516739,0.90064347015753221104,0.58211104515138489823,-2.97260820055075924984,0.66317634800690172803,-2.40170331026425420973,2.31061455890416134196,3.13337489603448737796,3.46364960929886755991,3.18718578188087331426,2.08752122421790486939,0.00000000000000000000,0.20800000000000001821,0.08000000000000000167,0.04800000000000000100,0.10000000000000000555,0.00000000000000000000,0.22160953800298063832,0.08509687034277196860,0.05186289120715349699,0.10871833084947837844,0.27599999999999996758,0.06800000000000000488,0.01200000000000000025,0.05999999999999999778,0.16000000000000000333,0.29441132637853950627,0.07280178837555886795,0.01229508196721311453,0.06415797317436661151,0.17287630402384501771,-3.54469579719756877623,-0.00305556900118938686,-1.23408123829340721223,0.02058597669925540941
17,17_1,117,70,,,,75.75757575757575068565,99.00000000000000000000,0.98197477190925808177,79.00000000000000000000,0.88918523373852664804,75.00000000000000000000,0.84025566601166556957,12.00000000000000000000,0.73213843809049727884,9.00000000000000000000,0.49334294756227858869,4.00000000000000000000,0.25000000000000000000,1.50000000000000000000,0.49999999999999983347,0.75000000000000022204,2.00000000000000044409,0.16666666666666665741,1.33333333333333325932,0.99999999999999966693,2.16666666666666696273,1.16666666666666696273,1.33333333333333214910,0.66666666666666674068,0.50000000000000011102,0.50000000000000011102,1.16666666666666696273,20.00000000000000000000,0.00000000000000000000,0.25000000000000000000,1.49999999999999955591,1.25000000000000044409,2.00000000000000044409,0.33333333333333331483,3.00000000000000000000,1.33333333333333281523,5.16666666666666785090,0.16666666666666668517,0.00000000000000000000,0.00000000000000000000,0.00000000000000000000,0.00000000000000000000,0.00000000000000000000,8.00000000000000000000,2.00000000000000000000,0.75000000000000000000,0.24999999999999991673,0.50000000000000011102,1.50000000000000044409,0.00000000000000000000,0.83333333333333337034,1.83333333333333259318,3.33333333333333436954,2.50000000000000044409,1.16666666666666563046,0.33333333333333337034,0.00000000000000000000,0.00000000000000000000,0.00000000000000000000,4.00000000000000000000,0.75000000000000000000,0.75000000000000000000,0.99999999999999966693,1.75000000000000044409,0.75000000000000022204,0.00000000000000000000,0.00000000000000000000,0.49999999999999983347,0.50000000000000011102,1.83333333333333370341,3.16666666666666385410,2.66666666666666696273,0.66666666666666674068,0.66666666666666674068,0.00000000000000000000,0.00000000000000000000,0.00000000000000000000,2.25000000000000000000,0.99999999999999966693,1.75000000000000044409,0.00000000000000000000,0.00000000000000000000,0.00000000000000000000,0.83333333333333314830,1.50000000000000022204,2.00000000000000044409,1.99999999999999844569,3.00000000000000044409,0.50000000000000011102,0.16666666666666668517,0.00000000000000000000,34.00000000000000000000,-0.00791308785875064966,-0.06867244120921275896,-0.16199521969318686487,-0.23078438433109801919,-0.19121781005853211166,-0.10202924162582104051,-0.00985641604629683421,-0.01803323168126925308,0.02723816017623058305,0.10916145926524903342,0.18002319883739684170,0.23955947622678563924,0.26024457661850369794,0.28353529630270524198,0.31505132365628352176,0.34445081352873796465,0.39416739541740064556,0.43588960378427488163,0.46758109987007978603,0.49025685841338451088,0.49540277915923414120,0.50997625887700503977,0.57879314757239186395,0.69072595347599263782,0.77366084477512953033,0.30799129189022567132,0.93599999999999994316,0.30399999999999999245,0.63200000000000000622,0.16800000000000001044,0.05093759031869804499,0.37600000000000000089,-0.02545935481561140135,0.52800000000000002487,0.60922955538806844444,-0.00315944966673742389,0.22400000000000000466,0.40800000000000002931,1.63808134917308945155,0.31730769230769229061,0.68269230769230770939,0.17115384615384615641,0.39423076923076927347,0.55384615384615387690,0.23653846153846153078,0.44615384615384612310,0.30399999999999999245,0.31730769230769229061,0.55600000000000004974,0.59230769230769220179,0.85999999999999998668,0.90961538461538460343,1.94384615384615377920,0.14799999999999999267,0.16057692307692306155,0.34799999999999997602,0.36730769230769233502,0.49599999999999999645,0.52788461538461528555,2.36695906432748559567,0.10799999999999999878,0.11730769230769230727,0.11999999999999999556,0.12788461538461537437,0.22799999999999998046,0.24519230769230770939,1.11813186813186815627,2.54404753154181229036,11.46440366158885737491,16.93076313400194621295,13.77926150886995415590,14.00845119313066966527,30.71002464287190036885,0.16361397885358011650,0.83638602114641980023,0.56266643339348854091,0.43733356660651157011,0.30946814873908368160,0.69053185126091642942,0.25787295390077186186,0.49267966853312439302,0.00525172646649790797,-0.00637147672588755931,0.00124223735029810323,-0.00427272870541567373,0.00505323671506413552,0.36256462718615889429,0.83922938855994644314,0.96929402108876216992,0.95311517510598009473,0.67667146647115550273,-1.75924218587670089242,0.24250523359472303531,-1.12348768794582376529,1.14331025640394412513,2.42998979219598032486,2.78969430424829356596,2.74028999998882483169,1.96702060667853917408,0.00800000000000000017,0.18800000000000000044,0.07200000000000000844,0.06400000000000000133,0.11200000000000000233,0.00961538461538461592,0.18942307692307691624,0.07500000000000001110,0.07403846153846153910,0.12115384615384615363,0.29600000000000004086,0.10799999999999999878,-0.03599999999999999728,0.02800000000000000058,0.14000000000000001332,0.30769230769230770939,0.11826923076923076539,-0.04326923076923076816,0.03076923076923077094,0.15192307692307693845,-2.02156998792954434307,-0.00285306795165114931,-0.87825973152560010693,0.00728271149232162258
25,25_1,161,89,,,,83.33333333333332859638,90.00000000000000000000,0.97053384090230421233,79.00000000000000000000,0.91196742182944290356,31.00000000000000000000,0.92921120769150411522,19.00000000000000000000,0.72424350775488133269,9.00000000000000000000,0.50668431495970434053,2.00000000000000000000,0.90909090909090906063,1.13636363636363646457,0.90909090909090872756,0.68181818181818198976,1.36363636363636397952,0.86206896551724132571,2.41379310344827580082,1.20689655172413745632,1.20689655172413812245,1.20689655172413812245,0.68965517241379248325,0.34482758620689663021,0.51724137931034497306,0.51724137931034497306,1.03448275862068994613,22.00000000000000000000,0.00000000000000000000,0.22727272727272726516,1.36363636363636309135,1.36363636363636397952,2.04545454545454585826,0.00000000000000000000,2.75862068965517259755,2.24137931034482651427,4.82758620689655248981,0.17241379310344831510,0.00000000000000000000,0.00000000000000000000,0.00000000000000000000,0.00000000000000000000,0.00000000000000000000,12.00000000000000000000,1.59090909090909082835,0.22727272727272726516,0.45454545454545436378,0.90909090909090928267,1.81818181818181856535,0.00000000000000000000,0.68965517241379314939,2.93103448275861966366,1.20689655172413812245,3.27586206896551779266,0.51724137931034441795,1.37931034482758652082,0.00000000000000000000,0.00000000000000000000,0.00000000000000000000,7.00000000000000000000,0.00000000000000000000,0.22727272727272726516,1.36363636363636309135,1.13636363636363668661,2.27272727272727337322,0.00000000000000000000,0.00000000000000000000,0.00000000000000000000,0.00000000000000000000,2.41379310344827624490,1.37931034482758496651,2.58620689655172464327,2.75862068965517304164,0.68965517241379326041,0.17241379310344831510,31.00000000000000000000,0.00000000000000000000,1.36363636363636353543,2.04545454545454497008,1.59090909090909127244,0.00000000000000000000,0.00000000000000000000,0.00000000000000000000,0.68965517241379281632,2.06896551724137989225,2.75862068965517304164,2.58620689655172153465,1.37931034482758652082,0.51724137931034497306,0.00000000000000000000,0.00000000000000000000,46.00000000000000000000,0.02133698425014763853,0.00690737609179912539,-0.05055024432306187698,-0.13216782975989829763,-0.14277587096489574581,-0.08001674901907314397,-0.00991684762602189525,-0.01076669230072232510,0.05193560348660951342,0.13614332364599157632,0.23620486435884424647,0.31403333851167647417,0.37118413975521180603,0.39419481980238796348,0.41156315282233846276,0.46065450390058754193,0.50970027612641854997,0.56769342508697429039,0.62066034817157889059,0.65892061113757338653,0.67741269423945449368,0.70362723545457217522,0.74090314075937024896,0.77552878461896823659,0.85128408177213743535,0.17479244470474736284,0.85999999999999998668,0.26800000000000001599,0.59200000000000008171,0.16000000000000000333,0.04577522689871305062,0.35199999999999997957,-0.02632437114893093622,0.48799999999999998934,0.49668764531266607065,-0.00407734855259367368,0.22000000000000000111,0.37199999999999999734,1.89319144393636484835,0.31038961038961038197,0.68961038961038956252,0.18484848484848484529,0.40779220779220781701,0.56623376623376620032,0.25584415584415581835,0.43376623376623379968,0.25600000000000000533,0.29675324675324676882,0.47999999999999998224,0.55649350649350648457,0.73599999999999998757,0.85324675324675325339,1.87687687687687687621,0.13200000000000000622,0.15346320346320346806,0.24799999999999999822,0.28852813852813852247,0.38000000000000000444,0.44199134199134199052,1.88051470588235281056,0.08799999999999999489,0.10216450216450215227,0.10400000000000000910,0.12121212121212121549,0.19200000000000000400,0.22337662337662336776,1.19999999999999995559,3.40495401198250036146,8.79375906338809798513,15.61525346960950599851,8.73959851842028534463,12.19871307537059834658,24.35485198802978956678,0.26685273456004543480,0.73314726543995467622,0.64692979749650181276,0.35307020250349824275,0.33523851857896819206,0.66476148142103175243,0.46314631203941813986,0.48545419319316523987,0.00461799811968220675,-0.00566365500839066671,-0.00174043888748676157,-0.00468484632605381535,0.00358910270799089881,0.28425784582981938886,0.80152821879017799311,0.88646186376563629317,0.88068694737503894210,0.62076446137027141425,-1.54714589318265804962,-0.39933261116136509195,-1.20252647074214857881,1.02074124941861232863,2.89480841788633025402,3.21543017417306931094,3.16580364454777196670,2.25089698470855736900,0.01200000000000000025,0.16800000000000001044,0.06400000000000000133,0.04800000000000000100,0.09600000000000000200,0.01428571428571428527,0.19393939393939391147,0.07316017316017314753,0.05649350649350649151,0.11255411255411255922,0.25600000000000000533,0.08799999999999999489,-0.02400000000000000050,0.02400000000000000050,0.11999999999999999556,0.29610389610389609150,0.10216450216450215227,-0.02900432900432900821,0.02748917748917749024,0.14004329004329005293,-0.96602806069775692954,-0.00363986415309021762,0.05471318872085551011,0.01565022881784911696
25,25_2,161,89,,,,77.31958762886598890418,97.00000000000000000000,0.98093495540078978756,79.00000000000000000000,0.87758585733382188376,29.00000000000000000000,0.84209860713180828551,15.00000000000000000000,0.88738391606984612370,11.00000000000000000000,0.62924694629941313462,6.00000000000000000000,1.13636363636363646457,0.90909090909090906063,0.90909090909090872756,0.68181818181818198976,1.36363636363636397952,0.86206896551724132571,1.72413793103448265143,1.37931034482758563264,1.03448275862068994613,0.86206896551724165878,1.20689655172413701223,0.68965517241379326041,0.51724137931034497306,0.68965517241379326041,1.03448275862068994613,22.00000000000000000000,0.00000000000000000000,0.90909090909090906063,1.13636363636363602048,2.27272727272727337322,0.68181818181818198976,1.37931034482758629878,1.03448275862068972408,7.41379310344827313628,0.17241379310344831510,0.00000000000000000000,0.00000000000000000000,0.00000000000000000000,0.00000000000000000000,0.00000000000000000000,0.00000000000000000000,12.00000000000000000000,0.68181818181818176772,0.68181818181818176772,1.36363636363636309135,2.04545454545454585826,0.22727272727272732067,0.00000000000000000000,0.00000000000000000000,0.51724137931034464000,0.86206896551724165878,5.51724137931034608329,2.24137931034482562609,0.86206896551724165878,0.00000000000000000000,0.00000000000000000000,0.00000000000000000000,5.00000000000000000000,0.00000000000000000000,0.00000000000000000000,2.04545454545454497008,2.04545454545454585826,0.90909090909090928267,0.00000000000000000000,0.00000000000000000000,0.17241379310344820408,0.34482758620689663021,1.55172413793103469715,2.75862068965516993302,2.06896551724137989225,2.58620689655172464327,0.51724137931034497306,0.00000000000000000000,3.00000000000000000000,0.00000000000000000000,0.90909090909090906063,2.95454545454545325356,0.90909090909090928267,0.22727272727272732067,0.00000000000000000000,0.00000000000000000000,1.03448275862068927999,2.41379310344827624490,4.13793103448275978451,1.20689655172413701223,1.03448275862068994613,0.00000000000000000000,0.17241379310344831510,0.00000000000000000000,79.00000000000000000000,0.02440439645952314704,0.00994993951129487762,-0.05560979531921159125,-0.13263682803414375555,-0.16943956115055774925,-0.10548336725489348975,-0.01465537430289829551,-0.03129261851632007124,0.01555597900900067970,0.09208442818890721915,0.16484178818491659890,0.21951475542646897710,0.24166870639197512993,0.28537875483780955621,0.32009543734569173568,0.37221018349167067640,0.44088352916573714246,0.50354610314133496640,0.55041599863740942045,0.60335241159937846867,0.64056412053175315613,0.69327623543577554521,0.73490526912298115292,0.78262544740545547661,0.82289343041436979753,0.22672628284552215350,0.94399999999999995026,0.32400000000000001021,0.61999999999999999556,0.21999999999999997335,0.04424602488970152958,0.39600000000000001865,-0.01864421818880185322,0.51200000000000001066,0.67469668291547324479,-0.00641245181966937361,0.18800000000000000044,0.43199999999999999512,1.42091686678181328141,0.32969559821884808493,0.67030440178115191507,0.21881159208701364549,0.40612453463756476024,0.53376158843711218882,0.20406599021826410389,0.46623841156288781118,0.24399999999999999467,0.25450762829403605902,0.59999999999999997780,0.64712752755675595484,0.84400000000000008349,0.90163515585079201387,2.62585812356979397819,0.14000000000000001332,0.15019344477699103635,0.37199999999999999734,0.39561281845390172673,0.51200000000000001066,0.54580626323089276308,2.65196078431372583850,0.09199999999999999845,0.09851084020731440405,0.14799999999999999267,0.15990218264106870194,0.23999999999999999112,0.25841302284838307823,1.61363636363636375748,7.03460414992466986916,9.17813380670813749873,16.08065830881573177180,18.62715876703245854173,16.21273795663280736790,34.70781707584819031354,0.38630335710389562820,0.61369664289610437180,0.49561706788632720055,0.50438293211367279945,0.30967256233000761689,0.69032743766999238311,0.10182594161189570392,0.49814526550375237690,0.00573612955446443917,-0.00537753600180390645,-0.00078821525006878002,-0.00321301277332780577,0.00233100909260702815,0.24277377464275495811,0.88673589121384555067,0.94735618000003340988,0.92005557922281888672,0.70569138565863820389,-1.07626233228398304753,-0.16125799632530976591,-0.57446757866936448700,0.45395476120268057896,36.94739488867983112641,38.41161796153628671391,37.53677751265818329784,29.53129014038031385780,0.01600000000000000033,0.23600000000000001532,0.08000000000000000167,0.02800000000000000058,0.10799999999999999878,0.01941747572815533812,0.23165924520037958767,0.08942258559018906316,0.02960070078107891051,0.11792831593546973523,0.30799999999999999600,0.07200000000000000844,0.00800000000000000017,0.03600000000000000422,0.14400000000000001688,0.31027812249069275374,0.07861887729031316607,0.01080370829987590403,0.04040440908095481454,0.15833272501642453589,-0.79449151849198940134,-0.00272203725232173302,-0.34053675728930876687,0.00685892402556116144
25,25_3,161,89,,,,76.92307692307693400835,97.50000000000000000000,0.97358504693924885487,77.00000000000000000000,0.89487233794717080393,28.00000000000000000000,0.87415672173692882119,16.00000000000000000000,0.66259577461787377839,9.00000000000000000000,0.74303801295187021925,3.00000000000000000000,1.87500000000000000000,0.62500000000000000000,0.62499999999999977796,0.62500000000000011102,1.25000000000000022204,1.42857142857142860315,1.78571428571428580945,1.07142857142857095276,1.25000000000000022204,0.89285714285714312677,0.71428571428571363544,0.53571428571428580945,0.71428571428571441260,0.53571428571428580945,1.07142857142857161890,24.00000000000000000000,0.00000000000000000000,1.25000000000000000000,1.04166666666666629659,1.25000000000000022204,1.45833333333333370341,1.96428571428571419055,1.42857142857142860315,6.42857142857142616066,0.17857142857142860315,0.00000000000000000000,0.00000000000000000000,0.00000000000000000000,0.00000000000000000000,0.00000000000000000000,0.00000000000000000000,14.00000000000000000000,1.45833333333333325932,0.41666666666666668517,1.24999999999999955591,0.62500000000000011102,1.25000000000000022204,0.35714285714285715079,0.35714285714285715079,0.35714285714285703977,1.07142857142857161890,5.35714285714285853857,2.49999999999999777955,0.00000000000000000000,0.00000000000000000000,0.00000000000000000000,0.00000000000000000000,9.00000000000000000000,0.62500000000000000000,0.83333333333333337034,2.29166666666666563046,0.83333333333333348136,0.41666666666666674068,0.00000000000000000000,0.00000000000000000000,0.00000000000000000000,0.00000000000000000000,1.25000000000000022204,3.21428571428571130397,3.21428571428571485669,2.32142857142857206298,0.00000000000000000000,0.00000000000000000000,5.00000000000000000000,0.00000000000000000000,1.45833333333333325932,1.04166666666666629659,2.08333333333333392545,0.41666666666666674068,0.00000000000000000000,0.00000000000000000000,0.00000000000000000000,0.71428571428571441260,1.07142857142857161890,3.03571428571428336696,4.28571428571428647558,0.89285714285714312677,0.00000000000000000000,0.00000000000000000000,4.00000000000000000000,0.05660420936190357910,0.06372572872433443503,0.00107369032092885508,-0.10693044611906758756,-0.13775431538183227631,-0.07779751161897158207,-0.00848108197229700475,-0.01752577003029483563,0.04435089730357244520,0.10621652484822730056,0.18409421215876969891,0.24898882919762699295,0.30149468068114065877,0.36114255344317802709,0.41625494304029397874,0.46500189054622942386,0.50076961787138574156,0.55178419683226875847,0.61228928408810479045,0.66980043899083130388,0.73095959267863230835,0.77610148038281256966,0.81060787462788952418,0.83723813053930151717,0.90719330246437457355,0.16369298665728690412,0.83200000000000007283,0.26800000000000001599,0.56400000000000005684,0.14799999999999999267,0.06219479655679255314,0.33199999999999996181,-0.02794953101519787042,0.52000000000000001776,0.39344797062711051039,-0.01139833116346963826,0.25200000000000000178,0.31199999999999999956,2.56536186114440223349,0.32113444989358747028,0.67886555010641247421,0.17678356620708801650,0.39812158785972051600,0.62441010456185797040,0.30327565466827055563,0.37558989543814191858,0.15199999999999999623,0.18284445266956600440,0.34399999999999997247,0.41269547515499216406,0.49599999999999999645,0.59553992782455811295,2.26315789473684247923,0.11599999999999999201,0.13967798649023779878,0.20000000000000001110,0.23975201258443601393,0.31600000000000000311,0.37942999907467378495,1.73333333333333339255,0.08399999999999999134,0.10118441750717127592,0.09600000000000000200,0.11520310909595632420,0.17999999999999999334,0.21638752660312760012,1.14999999999999991118,2.26266623647491504911,11.09972907417142629072,20.51414489061606971632,6.82284758868944507526,13.36239531064634178392,27.33699247930551479158,0.16758774288381794726,0.83241225711618205274,0.75201787534629893628,0.24798212465370111923,0.32828510642432928712,0.67171489357567071288,0.42651160726720926952,0.54967832083249457131,0.00432091390905733203,-0.00588888612810234413,-0.00130751748109259047,-0.00374366973747108922,0.00396380988430608538,0.14691396557064784201,0.76186455510127637503,0.91876643331205487542,0.86718914715496320245,0.50706456277400235866,-2.84728569110383666896,-0.43133677536452980084,-1.65754851435891059630,1.58747056388248530823,5.22434212732449942962,6.33667864869825780971,5.97920116309484761530,3.41643601806228058848,0.06400000000000000133,0.10799999999999999878,0.11999999999999999556,0.02000000000000000042,0.12399999999999999911,0.07504395299343018244,0.13005459424447118888,0.14518367724622929793,0.02391968168779494766,0.15013417229573425282,0.20400000000000001465,0.09600000000000000200,0.02400000000000000050,0.04399999999999999745,0.16800000000000001044,0.24609049690015732947,0.11603590265568614059,0.02914777459054316427,0.05306745627833811541,0.20320162857407236823,-2.34587096526288085840,-0.00421307459825750671,-0.75840040138039577222,0.02621278122452713744
27,27_3,115,64,,,,117.18750000000000000000,64.00000000000000000000,0.96119052011179562101,0.00000000000000000000,0.92880445177300285930,34.00000000000000000000,0.92931964689211432606,19.00000000000000000000,0.87473785345717569584,10.00000000000000000000,0.77062790109113243897,5.00000000000000000000,1.81818181818181812126,0.68181818181818176772,0.45454545454545436378,0.68181818181818198976,1.36363636363636397952,0.51724137931034486204,2.24137931034482740245,4.13793103448275711997,0.34482758620689663021,0.34482758620689663021,0.51724137931034441795,0.34482758620689663021,0.34482758620689663021,0.34482758620689663021,0.86206896551724165878,22.00000000000000000000,0.00000000000000000000,0.45454545454545453032,1.36363636363636309135,1.13636363636363668661,2.04545454545454585826,2.06896551724137944817,0.86206896551724132571,0.68965517241379281632,4.13793103448275978451,2.24137931034482829062,0.00000000000000000000,0.00000000000000000000,0.00000000000000000000,0.00000000000000000000,0.00000000000000000000,13.00000000000000000000,1.36363636363636353543,0.45454545454545453032,0.22727272727272718189,0.90909090909090928267,2.04545454545454585826,0.51724137931034486204,0.34482758620689657469,0.17241379310344820408,0.51724137931034497306,3.10344827586206939429,2.75862068965516993302,1.03448275862068994613,1.55172413793103469715,0.00000000000000000000,0.00000000000000000000,8.00000000000000000000,1.36363636363636353543,0.45454545454545453032,0.68181818181818154567,0.68181818181818198976,1.81818181818181856535,0.00000000000000000000,0.00000000000000000000,0.00000000000000000000,0.00000000000000000000,0.86206896551724165878,2.75862068965516993302,1.89655172413793149389,2.75862068965517304164,0.86206896551724165878,0.86206896551724165878,26.00000000000000000000,0.68181818181818176772,0.45454545454545453032,1.59090909090909016221,0.90909090909090928267,1.36363636363636397952,0.00000000000000000000,0.17241379310344828735,1.03448275862068927999,2.06896551724137989225,3.62068965517241458940,1.55172413793103292079,1.20689655172413812245,0.34482758620689663021,0.00000000000000000000,0.00000000000000000000,18.00000000000000000000,0.01921954883250046042,-0.01850360249001946344,-0.09665462281048087245,-0.19143372508742831362,-0.19223962254287771390,-0.10361813354395736642,-0.00412554686532733573,0.01498181719404239644,0.09626536358616488709,0.20193817633940636114,0.34553937767917969337,0.47664330786393244166,0.59849040188566970944,0.67202908918199977251,0.71135033802507041667,0.70117659500301920961,0.67710825494772786115,0.64324205755530516893,0.61945716259240213297,0.60577981247851131474,0.60930950915188808459,0.59912650224060748361,0.62213117503085491045,0.64830472219446633186,0.70602974470623269809,0.18776508968152680334,0.58799999999999996714,0.15199999999999999623,0.43599999999999999867,0.07200000000000000844,0.08936650808627677467,0.22400000000000000466,-0.05602001153133900901,0.35599999999999998312,0.16501197980111964592,0.00443088853927228743,0.20400000000000001465,0.23200000000000001177,5.82913644646647011172,0.25842280636801184812,0.74157719363198815188,0.12236208811551277376,0.38097001110699740822,0.60542391706775267046,0.34700111069974082234,0.39457608293224732954,0.09600000000000000200,0.16327286190299888924,0.14399999999999998912,0.24490929285449833386,0.23999999999999999112,0.40818215475749719534,1.50000000000000000000,0.07199999999999999456,0.12245464642724916693,0.09600000000000000200,0.16327286190299888924,0.16800000000000001044,0.28572750833024807005,1.33333333333333325932,0.04800000000000000100,0.08163643095149944462,0.05999999999999999778,0.10209181784524250236,0.10799999999999999878,0.18372824879674193310,1.25000000000000000000,0.87780340613657870108,6.54875989629668886494,12.53845069236898623899,3.70254922548619980205,7.42656330243326756602,16.24099991785518426468,0.11822055095453343210,0.88177944904546667892,0.77312206589166287962,0.22687793410833720364,0.31385089114834230362,0.68614910885165769638,0.86718026412914117618,0.44464531670970408594,0.01448952088897758478,-0.01422973506055402737,-0.00373578988422706981,-0.00688823337538130298,0.00676212691870337057,0.17380953111147606771,0.82163188401408215888,0.84600058637771125003,0.77992964967522460107,0.22090758770570242953,-0.98115452193739138842,-0.25977246999127606708,-0.47728831729126819372,0.46689300420959789495,4.73278308581328932547,4.85894967982157410802,4.47543643371004140619,1.27911772324027683823,0.03200000000000000067,0.06800000000000000488,0.06800000000000000488,0.01600000000000000033,0.10799999999999999878,0.05433172898926323657,0.11560533135875601662,0.11551277304701962345,0.02721214365049981487,0.18419104035542391284,0.11999999999999999556,0.05200000000000000455,0.01600000000000000033,0.03200000000000000067,0.14000000000000001332,0.20409107737874859767,0.08848574601999259492,0.02702702702702702853,0.05423917067752684340,0.23843021103295075624,-0.71098673886444518910,-0.00884003716606232906,-0.24409373465484729415,0.04299344267943966402
27,27_2,115,64,,,,100.00000000000000000000,75.00000000000000000000,0.95435697870558089395,78.00000000000000000000,0.91738128885829683945,33.00000000000000000000,0.90611657198409345515,19.00000000000000000000,0.84455471276136639958,12.00000000000000000000,0.77201237657948951210,10.00000000000000000000,1.84210526315789469010,0.78947368421052632748,0.52631578947368407029,0.52631578947368429233,1.31578947368421084185,0.98360655737704916213,0.98360655737704916213,4.26229508196721162960,0.65573770491803284877,0.32786885245901642438,0.32786885245901609132,0.49180327868852469209,0.49180327868852469209,0.49180327868852469209,0.98360655737704938417,19.00000000000000000000,0.00000000000000000000,0.26315789473684209065,0.78947368421052599441,1.57894736842105309904,2.36842105263157920447,1.96721311475409832425,0.65573770491803273774,2.78688524590163844152,2.45901639344262346043,1.96721311475409876834,0.16393442622950804566,0.00000000000000000000,0.00000000000000000000,0.00000000000000000000,0.00000000000000000000,11.00000000000000000000,1.05263157894736836262,0.52631578947368418131,0.26315789473684203514,0.78947368421052654952,2.36842105263157920447,0.49180327868852458106,0.32786885245901636887,0.32786885245901625785,0.32786885245901642438,2.29508196721311508171,3.44262295081966884780,0.98360655737704938417,1.80327868852459061166,0.00000000000000000000,0.00000000000000000000,7.00000000000000000000,1.84210526315789469010,0.52631578947368418131,0.52631578947368407029,1.05263157894736858466,1.05263157894736858466,0.00000000000000000000,0.00000000000000000000,0.00000000000000000000,0.00000000000000000000,0.81967213114754122749,1.47540983606557229990,2.45901639344262346043,2.45901639344262346043,1.96721311475409876834,0.81967213114754122749,79.00000000000000000000,0.78947368421052632748,1.31578947368421061981,1.84210526315789402396,1.05263157894736858466,0.00000000000000000000,0.00000000000000000000,0.00000000000000000000,0.00000000000000000000,0.32786885245901642438,1.80327868852459061166,2.62295081967212873053,3.11475409836065608715,1.31147540983606569753,0.49180327868852469209,0.32786885245901642438,79.00000000000000000000,0.00777921618805307163,-0.00666360958766846687,-0.05703825107091017865,-0.12959142231759734898,-0.15038486649114796156,-0.10152701397035328312,-0.00968927778417031510,-0.00378387469790175159,0.05174687156056530929,0.14263952517522429653,0.25618800618147752335,0.38550506204172191316,0.49724501109076252314,0.58181532187828743918,0.60712555921735578135,0.59790020295454737731,0.56341624078250229779,0.53695620473355809565,0.52739264809084274166,0.53809080674153697554,0.57356020956310416192,0.62572658153620108745,0.68839389764323499765,0.76077699791233843740,0.82787527673651106763,0.30451899661908882200,0.61333333333333328596,0.15466666666666664676,0.45866666666666661145,0.08000000000000000167,0.05158492284858610250,0.23466666666666666230,-0.02999244490681089378,0.36800000000000004929,0.44059034675510133638,0.00217342440053475139,0.21333333333333334703,0.24533333333333331994,2.16689852402831428790,0.25225225225225228476,0.74774774774774765973,0.13028413028413030061,0.38207438207438210176,0.59967659967659969755,0.34742434742434741279,0.40032340032340035796,0.15466666666666664676,0.25225225225225228476,0.41599999999999998090,0.67914067914067910436,0.57066666666666665542,0.93139293139293144463,2.68810916179337233700,0.09866666666666668029,0.16089166089166087592,0.27466666666666667007,0.45102795102795106841,0.37333333333333329485,0.61191961191961186106,2.77991452991452980825,0.05866666666666666557,0.09563409563409563940,0.08533333333333333048,0.13929313929313927312,0.14399999999999998912,0.23492723492723491252,1.45833333333333325932,1.74428947730053884868,4.52476143458774249240,11.07130112048203507413,4.39289372854513970879,6.26905091188828222926,15.46419484902717478292,0.23457492243565170043,0.76542507756434829957,0.71221560931612748480,0.28778439068387234867,0.28767388783655806206,0.71232611216344199345,0.66014192018090522840,0.43667908574722624770,0.00878062301694572910,-0.00927433223898025717,-0.00134231007797780411,-0.00409093956348064846,0.00484211683372920421,0.54632418878989363886,0.90117851713502827860,0.85854855560965148698,0.79527123222963203020,0.50198049180308845774,-1.05693567625122364362,-0.15610632697176807238,-0.47016679419387813477,0.55555387722309801379,1.65368005750587099278,1.57883577936538199715,1.46404195870046582861,0.91800617581400878464,0.05333333333333333676,0.06400000000000000133,0.06133333333333332998,0.02133333333333333262,0.08800000000000000877,0.08685608685608685320,0.10441210441210441173,0.09944559944559944187,0.03465003465003465427,0.14472164472164472659,0.10133333333333333082,0.03733333333333333642,0.02400000000000000397,0.04533333333333333659,0.13333333333333333148,0.16539616539616538993,0.06098406098406098513,0.03846153846153845673,0.07311157311157311101,0.21783321783321785148,-0.98621643230867539476,-0.00531550445449047431,-0.43066255508557743648,0.06114395210447320927
27,27_1,115,64,,,,101.35135135135135442397,74.00000000000000000000,0.96767858328193967488,0.00000000000000000000,0.90909682172655603694,33.00000000000000000000,0.86545408041284077605,18.00000000000000000000,0.79960803791414725161,11.00000000000000000000,0.68226223899582028043,5.00000000000000000000,1.81818181818181812126,0.68181818181818176772,0.45454545454545436378,0.68181818181818198976,1.36363636363636397952,1.37931034482758629878,4.13793103448275889633,1.03448275862068927999,0.51724137931034497306,0.34482758620689663021,0.34482758620689624163,0.51724137931034497306,0.34482758620689663021,0.34482758620689663021,1.03448275862068994613,22.00000000000000000000,0.00000000000000000000,0.45454545454545453032,1.13636363636363602048,1.36363636363636397952,2.04545454545454585826,2.24137931034482740245,0.86206896551724132571,2.75862068965517126529,4.13793103448275978451,0.00000000000000000000,0.00000000000000000000,0.00000000000000000000,0.00000000000000000000,0.00000000000000000000,0.00000000000000000000,12.00000000000000000000,1.36363636363636353543,0.45454545454545453032,0.45454545454545436378,0.90909090909090928267,1.81818181818181856535,0.17241379310344828735,0.51724137931034486204,0.51724137931034464000,0.51724137931034497306,4.31034482758620818288,1.89655172413792927344,2.06896551724137989225,0.00000000000000000000,0.00000000000000000000,0.00000000000000000000,6.00000000000000000000,0.90909090909090906063,1.13636363636363646457,0.90909090909090872756,1.13636363636363668661,0.90909090909090928267,0.00000000000000000000,0.00000000000000000000,0.00000000000000000000,0.00000000000000000000,0.34482758620689663021,2.41379310344827402446,2.93103448275862099592,3.44827586206896663512,0.86206896551724165878,0.00000000000000000000,1.00000000000000000000,0.00000000000000000000,2.27272727272727292913,1.36363636363636309135,0.90909090909090928267,0.45454545454545464134,0.00000000000000000000,0.00000000000000000000,0.00000000000000000000,1.20689655172413812245,3.96551724137931138614,4.31034482758620285381,0.51724137931034497306,0.00000000000000000000,0.00000000000000000000,0.00000000000000000000,19.00000000000000000000,0.01963062684418161521,-0.02127478577260417253,-0.10282928575165270479,-0.19145287728440441022,-0.19127101834209875308,-0.10630063696913608084,-0.00927527969204489273,-0.00725084046446344398,0.05743923309492139639,0.15296271322421156613,0.28346062980667574571,0.40862853402741339259,0.54254995905163838632,0.63500992695966984591,0.69870633012778959881,0.72066560201566209898,0.72401907409464305587,0.71544660537905413467,0.72690462750530415725,0.72914509608743816038,0.75740930522550031778,0.76568405113012349972,0.79175491103571971063,0.81540106690371882969,0.87692815574093718745,0.16066189672094363661,0.59599999999999997424,0.15599999999999999978,0.44000000000000000222,0.07599999999999999811,0.08269447128218920806,0.21599999999999999756,-0.04242217264323089321,0.35599999999999998312,0.15327515641861769180,-0.00469236291617717433,0.20000000000000001110,0.23999999999999999112,8.11181523462289355564,0.26171593366979090112,0.73828406633020904337,0.12689257390050467933,0.36256308579668350411,0.59742249459264595846,0.33570656092285511285,0.40257750540735398603,0.09600000000000000200,0.16140951694304253583,0.19200000000000000400,0.32417087238644554104,0.28799999999999997824,0.48558038932948810462,1.96503496503496499770,0.07200000000000000844,0.12112472963229992118,0.10799999999999999878,0.18168709444844988177,0.17999999999999999334,0.30281182408074980295,1.50000000000000000000,0.04800000000000000100,0.08083994232155730653,0.06400000000000000133,0.10769646719538572555,0.11200000000000000233,0.18853640951694303207,1.34285714285714297134,0.96090933131009481638,6.06954321740784141781,12.35979293620550478749,3.27143289530936343112,7.03045254871793634521,15.63122583151486821862,0.13558701359521932450,0.86441298640478070325,0.79034286895777050574,0.20965713104222957752,0.31028884296267317255,0.68971115703732688296,0.73371902011506917596,0.48296449501339955290,0.01338917719187469532,-0.01277774217922839073,-0.00372327055144655583,-0.00708030916349416950,0.00620563645648120055,0.17442484046651884899,0.80669960468862611513,0.81639781063568850339,0.76181539509749862660,0.23979799662431700025,-0.93837226622547864618,-0.28300181200901164402,-0.52332058596640695924,0.46169664518600983527,6.53531260266286562199,6.67128263657030640132,6.37635880797696952271,2.45214775142847685174,0.03200000000000000067,0.08000000000000000167,0.05199999999999999761,0.01600000000000000033,0.11199999999999998845,0.05290194664744051617,0.13509372746935832676,0.08660778658976206468,0.02685652487382840514,0.18826604181687095485,0.12399999999999999911,0.04399999999999999745,0.00800000000000000017,0.02400000000000000050,0.13600000000000000977,0.20881398702235037801,0.07372025955299206512,0.01288752703677000649,0.03974405191059841164,0.22801009372746933179,-0.59374651343606976717,-0.00794146489474318804,-0.13204986825005995965,0.02126220372444555598
35,35_3,153,72,,,,85.22727272727271952135,88.00000000000000000000,0.96297623008010868606,1.00000000000000000000,0.87157095780117221917,34.00000000000000000000,0.84421965748669802743,17.00000000000000000000,0.86347747488095516477,13.00000000000000000000,0.66674871494927701043,10.00000000000000000000,1.84210526315789469010,0.78947368421052632748,0.52631578947368407029,0.52631578947368429233,1.31578947368421084185,2.29508196721311463762,2.13114754098360670298,1.63934426229508156680,0.81967213114754122749,0.32786885245901642438,0.49180327868852419249,0.32786885245901642438,0.32786885245901642438,0.49180327868852469209,1.14754098360655754085,19.00000000000000000000,0.00000000000000000000,0.78947368421052632748,1.31578947368421017572,1.05263157894736858466,1.84210526315789513419,1.96721311475409832425,0.98360655737704916213,5.57377049180327688305,1.47540983606557407626,0.00000000000000000000,0.00000000000000000000,0.00000000000000000000,0.00000000000000000000,0.00000000000000000000,0.00000000000000000000,11.00000000000000000000,1.31578947368421061981,0.26315789473684209065,0.52631578947368407029,1.31578947368421084185,1.57894736842105309904,0.00000000000000000000,0.16393442622950818444,0.49180327868852441453,0.49180327868852469209,4.42622950819672222877,3.11475409836065297853,1.31147540983606569753,0.00000000000000000000,0.00000000000000000000,0.00000000000000000000,7.00000000000000000000,0.78947368421052632748,0.52631578947368418131,0.52631578947368407029,1.05263157894736858466,2.10526315789473716933,0.00000000000000000000,0.00000000000000000000,0.00000000000000000000,0.00000000000000000000,0.00000000000000000000,0.32786885245901609132,2.62295081967213139507,4.75409836065573898622,1.96721311475409876834,0.32786885245901642438,3.00000000000000000000,0.78947368421052632748,1.05263157894736836262,0.78947368421052599441,1.05263157894736858466,1.31578947368421084185,0.00000000000000000000,0.00000000000000000000,0.00000000000000000000,0.49180327868852469209,4.26229508196721429414,3.93442622950819353989,1.14754098360655754085,0.16393442622950821219,0.00000000000000000000,0.00000000000000000000,15.00000000000000000000,-0.00062777115584532488,-0.02665838101466340426,-0.10192226531903451903,-0.19676950184934993704,-0.22512171749192591563,-0.14170755759972736287,-0.01532224624034557101,-0.01755918453073012156,0.02139531177651338156,0.10417207537172445964,0.22773687140267365181,0.37552295134422564171,0.48914705054953655505,0.56307464834548393018,0.59368504380813558186,0.62590540758001145250,0.65879692708735715367,0.70357199664969816144,0.73673759302128782878,0.77601927725450203788,0.80442462280716908740,0.82652883250656850045,0.84556243807630460108,0.88599870111440481857,0.90961385212800482947,0.15306812441524511592,0.71999999999999997335,0.16799999999999998268,0.55200000000000004619,0.08799999999999999489,0.09257588795248411495,0.28400000000000003020,-0.04136191758832896692,0.41200000000000003286,0.27218136918587998441,-0.00704760601738593784,0.24399999999999999467,0.30799999999999999600,3.64278859626534590177,0.23323867144091864345,0.76676132855908130104,0.12211384121496481059,0.39455488331892829557,0.57198419557970114901,0.33874552413878256107,0.42801580442029879547,0.10000000000000000555,0.13884430176565007442,0.26400000000000001243,0.36658846771206321513,0.36399999999999999023,0.50543276947771331731,2.64102564102564096871,0.07599999999999999811,0.10550685269786393150,0.14399999999999998912,0.20002469440671688528,0.22000000000000000111,0.30553154710458085841,1.89999999999999991118,0.05200000000000000455,0.07216940363007778858,0.09199999999999999845,0.12785529077663909669,0.14399999999999998912,0.20002469440671688528,1.78571428571428558740,1.33886285008231586957,7.24169895343532221688,18.49936192003174184606,4.65896276668685871414,8.58056180351763941871,23.15832468671860056020,0.15608000684034661898,0.84391999315965327000,0.79882598441450669569,0.20117401558549341534,0.27039583736792882629,0.72960416263207106269,0.72163203838144596158,0.49032358684182231201,0.01309986271990337681,-0.01379496199497387554,-0.00449759917067371617,-0.00474507856031131103,0.00447402841253130568,0.24496355316978199457,0.93943823087136668626,0.98248963595446503483,0.94632654416039763134,0.39602823643380508090,-1.05258357117003109593,-0.34333320041840564851,-0.36216211773107243044,0.34163112671269879606,3.83451968847766666570,4.01237824858116454152,3.86727835922313856187,1.61249163588936461622,0.04800000000000000100,0.07599999999999999811,0.04000000000000000083,0.02400000000000000050,0.13600000000000000977,0.06655142610198790110,0.10550685269786393150,0.05580935918014569286,0.03309050500061735955,0.18915915545129027842,0.11999999999999999556,0.04399999999999999745,-0.00400000000000000008,0.02000000000000000042,0.15599999999999999978,0.16668724533893072848,0.06118039264106679698,-0.00537103346092110238,0.02771947153969625890,0.21687862699098653385,-0.68871937973325203508,-0.00692576648246445020,-0.34708825302055312800,0.00337300282458224011
35,35_2,153,72,,,,84.26966292134832769989,89.00000000000000000000,0.96793433168154030533,79.00000000000000000000,0.86737738250235307813,34.00000000000000000000,0.82364019427598056389,17.00000000000000000000,0.79010371272856338987,12.00000000000000000000,0.78663539032309182097,9.00000000000000000000,1.25000000000000000000,1.00000000000000000000,0.74999999999999977796,0.50000000000000011102,1.50000000000000044409,1.83333333333333325932,1.66666666666666674068,1.66666666666666629659,1.33333333333333348136,0.66666666666666674068,0.33333333333333303727,0.50000000000000011102,0.33333333333333337034,0.66666666666666674068,1.00000000000000022204,20.00000000000000000000,0.00000000000000000000,1.00000000000000000000,1.24999999999999955591,1.00000000000000022204,1.75000000000000044409,1.83333333333333325932,1.16666666666666674068,2.66666666666666563046,4.33333333333333392545,0.00000000000000000000,0.00000000000000000000,0.00000000000000000000,0.00000000000000000000,0.00000000000000000000,0.00000000000000000000,11.00000000000000000000,1.50000000000000000000,0.25000000000000000000,0.99999999999999966693,1.00000000000000022204,1.25000000000000044409,0.00000000000000000000,0.33333333333333331483,0.16666666666666660190,1.33333333333333348136,5.16666666666666785090,1.83333333333333170501,1.16666666666666696273,0.00000000000000000000,0.00000000000000000000,0.00000000000000000000,7.00000000000000000000,0.75000000000000000000,0.75000000000000000000,0.49999999999999983347,1.50000000000000044409,1.50000000000000044409,0.00000000000000000000,0.00000000000000000000,0.00000000000000000000,0.00000000000000000000,2.66666666666666696273,3.83333333333332992865,1.33333333333333348136,1.50000000000000022204,0.66666666666666674068,0.00000000000000000000,4.00000000000000000000,0.50000000000000000000,0.75000000000000000000,0.49999999999999983347,2.00000000000000044409,1.25000000000000044409,0.00000000000000000000,0.00000000000000000000,0.00000000000000000000,0.00000000000000000000,0.66666666666666674068,5.16666666666666163366,3.83333333333333436954,0.33333333333333337034,0.00000000000000000000,0.00000000000000000000,17.00000000000000000000,0.00565901145654936714,0.00316882671246547509,-0.04896616565222590423,-0.13908968384205327995,-0.17630838460456307870,-0.11298167170161806105,-0.01202153547502681635,-0.01805357642926827197,0.01429075477472884284,0.08364291516965151330,0.19328287296867277534,0.31883765362966454138,0.42176881209616212676,0.48009769353490217014,0.51202172807777679431,0.54026720427195884522,0.57003247552635460949,0.60529827216207510165,0.64583895096937071756,0.68700310035549760901,0.73176688545988199941,0.77138459857933350250,0.80965577660528431636,0.85472874787917740846,0.90109980356014385272,0.19466178791745281096,0.73999999999999999112,0.18800000000000000044,0.55200000000000004619,0.10000000000000000555,0.06655807394311363812,0.29999999999999998890,-0.03153110288773153247,0.44400000000000000577,0.41718656964549261090,-0.00708694825139882800,0.25600000000000000533,0.29599999999999998535,2.46704423737523548255,0.25414913510986442136,0.74585086489013563416,0.13522674146797569739,0.40550490883590462055,0.59992987377279105576,0.34578073866292657890,0.40007012622720894424,0.18800000000000000044,0.25414913510986442136,0.44000000000000000222,0.59525479195885933059,0.62800000000000000266,0.84940392706872369644,2.32000000000000028422,0.09600000000000000200,0.12973352033660590088,0.19600000000000000755,0.26501870032725571846,0.29200000000000003730,0.39475222066386161934,2.04166666666666651864,0.06400000000000000133,0.08648901355773726263,0.10799999999999999878,0.14597942964001869859,0.17199999999999998623,0.23246844319775594734,1.68750000000000000000,2.14674011595691860421,7.06192339675596780779,17.69737377104645048576,4.85544242379415358357,9.20866351271288685609,22.55281619484060229297,0.20423287174423399026,0.79576712825576589871,0.78335702671631302074,0.21664297328368714579,0.28701535447849496618,0.71298464552150508933,0.57453193478860586918,0.50024664506025917632,0.01058490883713572583,-0.00908039470795696246,-0.00098456538631996882,-0.00292620689480266316,0.00346310862550425202,0.44369773943098184121,0.93934435256161163963,0.95203213944846609706,0.79171206800674598369,0.51867266691521807243,-0.85767915532283800495,-0.09359015799935664626,-0.27686863973334896460,0.32658793752488346485,2.12745109820477162899,2.15173190495329613725,1.78408810133673001452,1.17102464580569876063,0.06400000000000000133,0.07200000000000000844,0.07599999999999999811,0.05999999999999999778,0.08000000000000000167,0.08660589060308554465,0.09724170172978027771,0.10267648433847592626,0.08105423094904161407,0.10822814399251987072,0.12399999999999999911,0.05200000000000000455,0.02400000000000000050,0.08399999999999999134,0.16400000000000000688,0.16754324450677887670,0.07030154277699859899,0.03237494156147732727,0.11342917251051892746,0.22165731650303879818,-0.81380829511501584506,-0.00366134611795185683,-0.48722035759013249123,0.06771232400759581715
35,35_1,153,72,,,,85.22727272727271952135,88.00000000000000000000,0.96054771867956301179,1.00000000000000000000,0.87017141622326477091,33.00000000000000000000,0.83335710559467934821,17.00000000000000000000,0.92116057464078027195,12.00000000000000000000,0.70884626099048753112,9.00000000000000000000,1.84210526315789469010,0.52631578947368418131,0.52631578947368407029,0.78947368421052654952,1.31578947368421084185,2.29508196721311463762,1.80327868852459016757,1.63934426229508156680,0.98360655737704938417,0.49180327868852469209,0.32786885245901609132,0.32786885245901642438,0.49180327868852469209,0.49180327868852469209,1.14754098360655754085,19.00000000000000000000,0.00000000000000000000,0.78947368421052632748,1.05263157894736814058,1.05263157894736858466,2.10526315789473716933,1.80327868852459016757,1.14754098360655731881,6.72131147540983420186,0.32786885245901642438,0.00000000000000000000,0.00000000000000000000,0.00000000000000000000,0.00000000000000000000,0.00000000000000000000,0.00000000000000000000,10.00000000000000000000,1.57894736842105265495,0.26315789473684209065,0.26315789473684203514,1.31578947368421084185,1.57894736842105309904,0.16393442622950818444,0.32786885245901636887,0.32786885245901625785,1.14754098360655754085,5.57377049180327954758,1.31147540983606436527,1.14754098360655754085,0.00000000000000000000,0.00000000000000000000,0.00000000000000000000,6.00000000000000000000,1.05263157894736836262,0.52631578947368418131,0.52631578947368407029,0.78947368421052654952,2.10526315789473716933,0.00000000000000000000,0.00000000000000000000,0.00000000000000000000,0.00000000000000000000,0.00000000000000000000,0.65573770491803218263,3.93442622950819753669,3.11475409836065608715,2.29508196721311508171,0.00000000000000000000,4.00000000000000000000,0.78947368421052632748,0.52631578947368418131,0.52631578947368407029,1.84210526315789513419,1.31578947368421084185,0.00000000000000000000,0.00000000000000000000,0.00000000000000000000,0.00000000000000000000,1.31147540983606569753,3.93442622950819353989,3.93442622950819753669,0.81967213114754122749,0.00000000000000000000,0.00000000000000000000,14.00000000000000000000,-0.00182807286521198650,-0.04005011641967679004,-0.12780998210582883434,-0.22742772088882134973,-0.22797862486804393312,-0.13203097538002148137,-0.01050585487291005524,-0.00683345913032845989,0.03138760143430495420,0.11207430438972729170,0.23140775422157794372,0.37144899493845506822,0.47686800379186555787,0.54189247452966315954,0.57337639485072755541,0.60882376577943175811,0.63700074068446244091,0.67930981624834174681,0.72399692556658745701,0.76936423732089975758,0.79765739243332145492,0.83376131441853473802,0.85430647087061251099,0.88239313597155843993,0.90250140524162048017,0.15005864040215563526,0.69999999999999995559,0.16400000000000000688,0.53600000000000003197,0.07599999999999999811,0.08060160742554897673,0.27600000000000002309,-0.03812799317027654178,0.40800000000000002931,0.24041682597316457737,-0.00687922323540374192,0.24399999999999999467,0.29200000000000003730,3.66084469622934394195,0.23426071055381400554,0.76573928944618596670,0.10860762800417972374,0.39426593521421104960,0.58274555903866254170,0.34848484848484850840,0.41725444096133751382,0.10000000000000000555,0.14282915360501569069,0.26000000000000000888,0.37140804597701149170,0.35999999999999998668,0.51423719958202718239,2.60256410256410219972,0.07599999999999999811,0.10854231974921629833,0.13600000000000000977,0.19429205851619646417,0.21199999999999999400,0.30283437826541276250,1.79444444444444428655,0.05200000000000000455,0.07425548589341693373,0.08799999999999999489,0.12571839080459770721,0.14000000000000001332,0.19997387669801464094,1.70238095238095232808,0.87942496586878882159,6.89706288134011202828,16.33485601200145254097,3.97564567283322212177,7.77648784720889985067,20.31050168483467288638,0.11420233844041753624,0.88579766155958239437,0.80453462119136176511,0.19546537880863812386,0.27688278387403941760,0.72311721612596058240,0.67462601820812650999,0.50111722303653438715,0.01252555276933450812,-0.01031269432357118099,-0.00131513810848499224,-0.00315887374030021650,0.00434251855763070904,0.16561936683804628911,0.83142858608544178978,0.75993796163028881629,0.66151998287782598496,0.33061639608474413521,-0.82381751628676957999,-0.10503051868116158873,-0.25259588585924563908,0.34753005903512029784,5.04013239031060500395,4.61462148196328136862,4.02581138249376291327,2.00901005106571606262,0.03600000000000000422,0.08399999999999999134,0.09199999999999999845,0.02800000000000000058,0.08399999999999999134,0.05139759665621734808,0.12003657262277953044,0.13133490073145245858,0.03996865203761755525,0.12003657262277953044,0.12800000000000000266,0.04399999999999999745,0.04800000000000000100,0.07599999999999999811,0.16000000000000000333,0.18286311389759665746,0.06282654127481712703,0.06850835945663531767,0.10847701149425287293,0.22851358411703240336,-0.81372117078148276104,-0.00432282337021612853,-0.46619111174636240769,0.05792563099111783242
51,51_3,173,107,,,,100.00000000000000000000,75.00000000000000000000,0.97373221259280862139,78.00000000000000000000,0.87927550564469780792,27.00000000000000000000,0.97873469409716418177,12.00000000000000000000,0.72374803006747989720,7.00000000000000000000,0.61490941874007232215,73.00000000000000000000,1.30434782608695654105,0.65217391304347827052,0.43478260869565199531,0.65217391304347838155,1.95652173913043503362,1.05263157894736836262,1.40350877192982448349,1.22807017543859608999,0.70175438596491235277,0.87719298245614063525,0.70175438596491168664,0.87719298245614063525,1.22807017543859675612,0.87719298245614063525,1.05263157894736858466,23.00000000000000000000,0.00000000000000000000,1.08695652173913037686,1.08695652173913015481,1.08695652173913082095,1.73913043478260909147,2.80701754385964896699,5.61403508771929793397,1.57894736842105221086,0.00000000000000000000,0.00000000000000000000,0.00000000000000000000,0.00000000000000000000,0.00000000000000000000,0.00000000000000000000,0.00000000000000000000,9.00000000000000000000,1.52173913043478270524,1.08695652173913037686,0.21739130434782599766,0.21739130434782613643,1.95652173913043503362,0.00000000000000000000,0.00000000000000000000,1.05263157894736814058,0.17543859649122808819,4.56140350877193068158,2.80701754385964674654,1.40350877192982470554,0.00000000000000000000,0.00000000000000000000,0.00000000000000000000,3.00000000000000000000,1.30434782608695654105,0.65217391304347827052,1.08695652173913015481,1.52173913043478292728,0.43478260869565227287,0.00000000000000000000,0.00000000000000000000,0.00000000000000000000,0.70175438596491235277,1.92982456140350921991,3.85964912280701399894,1.92982456140350921991,0.70175438596491235277,0.87719298245614063525,0.00000000000000000000,30.00000000000000000000,0.21739130434782608092,1.52173913043478270524,1.08695652173913015481,1.73913043478260909147,0.43478260869565227287,0.00000000000000000000,0.17543859649122806044,1.40350877192982403940,1.92982456140350921991,2.10526315789473716933,2.10526315789473494888,1.40350877192982470554,0.70175438596491235277,0.17543859649122808819,0.00000000000000000000,0.00000000000000000000,0.02181029250799615057,-0.03000266227910196315,-0.12441602897720159537,-0.20298388015374127513,-0.18280306242383748128,-0.09446244714875218218,-0.01127321625537551671,-0.02609103998271440281,-0.00196559227753961363,0.03084518554269216617,0.06602509790045137106,0.07490392077536052462,0.08758121127020407348,0.13335739996484155534,0.20209760642719432067,0.28291589941679301523,0.34536161107608970289,0.43337458917312260409,0.51721647041809171164,0.60062094524345588376,0.65030428191534983551,0.67054110965511171116,0.72630413315952335740,0.76025264503995815257,0.83757015899947895310,0.21171100964139030753,0.62933333333333330017,0.17600000000000001754,0.45333333333333336590,0.07199999999999999456,0.05576034706401363644,0.20266666666666666163,-0.01647512780027826640,0.25600000000000000533,0.84703513974919120155,-0.00245187019490215397,0.08000000000000000167,0.37333333333333329485,1.14851596311824155627,0.27929749575319195998,0.72070250424680804002,0.11427338484300508803,0.32139021316236504600,0.40568524302701519657,0.12638774727382320884,0.59431475697298485894,0.17600000000000001754,0.27929749575319195998,0.41066666666666667984,0.65171036769138035449,0.58666666666666666963,0.93100786344457242549,2.33292016272565483348,0.11999999999999999556,0.19040152885089592361,0.26666666666666666297,0.42343553071401168753,0.38666666666666665853,0.61383705956490774991,2.23589743589743594754,0.08266666666666666607,0.13104553674173927136,0.15199999999999999623,0.24136733519644906765,0.23466666666666666230,0.37241287193818833900,1.87247474747474740298,1.41900376791097859730,7.20253768032397712062,5.33730512959216785163,14.12759343139438605874,8.62154144823495549588,19.46489856098655479855,0.14917475994724685440,0.85082524005275317336,0.31693223349054694404,0.68306776650945300045,0.31291160869493606089,0.68708839130506393911,0.04366942767234301831,0.60547453511971005558,0.01072494280919115452,-0.00829120276901303653,0.00299694889458868019,-0.00531238972374266805,0.00444558576289092854,0.43009270080464534480,0.85312970223437523121,0.91677100752417750584,0.88899516595339356240,0.74427882654885146874,-0.84098860124730923093,0.29938370372479222725,-0.44826054562602490883,0.42821440311699870973,2.03276986115039548508,2.16881061009438669274,2.10403926388962458915,1.77164849874990282252,0.01600000000000000033,0.08000000000000000167,0.08800000000000000877,0.03200000000000000067,0.07733333333333332338,0.02531645569620253125,0.12704942736588306640,0.13954531755164664708,0.05101854896158693892,0.12324373938297988884,0.16000000000000000333,0.08000000000000000167,0.00800000000000000017,0.04000000000000000083,0.11733333333333333115,0.25398104005698940444,0.12693161269110639355,0.01261370486054030383,0.06363225382212724102,0.18687599320510708822,-1.12032616246307514807,-0.00365406582107266316,-0.69211175934607671589,0.02753428208430586457
51,51_2,173,107,,,,91.46341463414634631590,82.00000000000000000000,0.96844561151283126144,73.00000000000000000000,0.81816791244528963567,25.00000000000000000000,0.79270495130982743248,14.00000000000000000000,0.63864999365187324898,2.00000000000000000000,0.51583150044379677546,69.00000000000000000000,1.00000000000000000000,0.80000000000000004441,0.39999999999999985567,0.60000000000000008882,2.20000000000000062172,1.27272727272727270709,1.81818181818181812126,1.63636363636363579843,0.72727272727272740394,0.54545454545454563622,0.72727272727272662678,1.09090909090909127244,0.90909090909090939370,0.54545454545454563622,0.72727272727272740394,25.00000000000000000000,0.00000000000000000000,0.80000000000000004441,1.39999999999999946709,1.00000000000000022204,1.80000000000000026645,2.18181818181818165669,5.09090909090909082835,2.72727272727272618269,0.00000000000000000000,0.00000000000000000000,0.00000000000000000000,0.00000000000000000000,0.00000000000000000000,0.00000000000000000000,0.00000000000000000000,11.00000000000000000000,2.39999999999999991118,0.20000000000000001110,0.19999999999999992784,0.40000000000000007772,1.80000000000000026645,0.00000000000000000000,0.54545454545454541417,1.45454545454545391969,2.90909090909090961574,3.27272727272727337322,1.27272727272727159686,0.36363636363636370197,0.18181818181818185098,0.00000000000000000000,0.00000000000000000000,6.00000000000000000000,1.00000000000000000000,1.19999999999999995559,1.79999999999999937828,1.00000000000000022204,0.00000000000000000000,0.00000000000000000000,0.00000000000000000000,0.00000000000000000000,0.72727272727272740394,3.09090909090909127244,3.63636363636363313390,0.90909090909090939370,1.09090909090909127244,0.36363636363636370197,0.18181818181818185098,78.00000000000000000000,1.19999999999999995559,1.80000000000000004441,1.39999999999999946709,0.20000000000000003886,0.40000000000000007772,0.00000000000000000000,0.00000000000000000000,1.09090909090909060630,1.63636363636363668661,2.54545454545454585826,2.36363636363636153703,1.09090909090909127244,0.72727272727272740394,0.54545454545454563622,0.00000000000000000000,14.00000000000000000000,0.04245431490767542781,-0.02676271565738603045,-0.14673369957819906717,-0.22547570530585411830,-0.18791448263187379708,-0.08748514814139829454,-0.00766013933469832185,-0.01090822460383915858,0.05203801723104212185,0.09157877311643737583,0.13679907829184501100,0.17584736830144861996,0.22593238813252622399,0.28460305648318801053,0.34387327594610345161,0.43017811261382848942,0.51615969078536194647,0.56330971907222593398,0.59158139188366654082,0.62824887976544963042,0.65264224446163743298,0.66598599977395711580,0.70290233945423186146,0.74867052195848637908,0.86288694859000081294,0.19045759883293286729,0.63466666666666660124,0.19466666666666665453,0.43999999999999994671,0.06933333333333333015,0.07455733364136062080,0.24266666666666666941,-0.03296065768639436927,0.34133333333333332194,0.52205591360639258536,-0.01248013460635940229,0.14666666666666669516,0.29333333333333333481,1.78503000697830649379,0.30772005772005772695,0.69227994227994227305,0.10894660894660894435,0.38239538239538245490,0.53751803751803750586,0.22979797979797980667,0.46248196248196249414,0.14133333333333333859,0.22330447330447331100,0.30666666666666669849,0.48376623376623378858,0.44800000000000000933,0.70707070707070707183,2.19091847265221906227,0.11199999999999998845,0.17712842712842713500,0.17333333333333333925,0.27200577200577197301,0.28533333333333332771,0.44913419913419910801,1.56570512820512841579,0.08266666666666666607,0.13095238095238095899,0.08266666666666666607,0.12987012987012988563,0.16533333333333333215,0.26082251082251078911,1.03333333333333343695,1.07097367303771284774,10.47761228291791013589,12.67383108911018574361,8.89916632085642156369,11.54858595595562320568,21.57299740996660730730,0.09260460817655204180,0.90739539182344797208,0.57541730586078687626,0.42458269413921306823,0.35155149135297136809,0.64844850864702863191,0.20174529995413728600,0.59924472551658070074,0.01281403140776570665,-0.01022472804773131606,0.00232862732742185807,-0.00802866265413896586,0.00647935344845268490,0.14729643082698654077,0.71387924460317631059,0.82814523041046206320,0.83451742219059721339,0.61631022023870529747,-0.95561027985785018668,0.18188291282928034653,-0.68794153984042039074,0.51288796102307987468,5.34192409892940300864,6.08739129622367869388,6.31086832763855554163,4.77406102167284362991,0.01866666666666666821,0.08000000000000000167,0.06933333333333334403,0.05066666666666666541,0.06400000000000000133,0.03030303030303030387,0.12518037518037516964,0.10714285714285715079,0.08152958152958152127,0.10245310245310246255,0.17600000000000001754,0.09599999999999998812,-0.02666666666666666144,0.02400000000000000397,0.08800000000000000877,0.27741702741702739532,0.15223665223665222568,-0.04509379509379509571,0.03643578643578643250,0.13888888888888886730,-0.96243961386978982286,-0.00441118617835924674,-0.44955165284671000370,0.01389860290381006273
