patient,trial,SP,DP,ppg_fft_peaks_0,ppg_fft_peaks_heights_0,ppg_fft_peaks_neighbor_avgs_0,hr_0,p2p_0,ppg_max_neighbor_mean_0,ppg_min_0,vpg_max_neighbor_mean_0,vpg_min_0,apg_max_neighbor_mean_0,apg_min_0,ppg3_max_neighbor_mean_0,ppg3_min_0,ppg4_max_neighbor_mean_0,ppg4_min_0,ppg_histogram_up_0,ppg_histogram_up_1,ppg_histogram_up_2,ppg_histogram_up_3,ppg_histogram_up_4,ppg_histogram_down_0,ppg_histogram_down_1,ppg_histogram_down_2,ppg_histogram_down_3,ppg_histogram_down_4,ppg_histogram_down_5,ppg_histogram_down_6,ppg_histogram_down_7,ppg_histogram_down_8,ppg_histogram_down_9,ppg_max_0,vpg_histogram_up_0,vpg_histogram_up_1,vpg_histogram_up_2,vpg_histogram_up_3,vpg_histogram_up_4,vpg_histogram_down_0,vpg_histogram_down_1,vpg_histogram_down_2,vpg_histogram_down_3,vpg_histogram_down_4,vpg_histogram_down_5,vpg_histogram_down_6,vpg_histogram_down_7,vpg_histogram_down_8,vpg_histogram_down_9,vpg_max_0,apg_histogram_up_0,apg_histogram_up_1,apg_histogram_up_2,apg_histogram_up_3,apg_histogram_up_4,apg_histogram_down_0,apg_histogram_down_1,apg_histogram_down_2,apg_histogram_down_3,apg_histogram_down_4,apg_histogram_down_5,apg_histogram_down_6,apg_histogram_down_7,apg_histogram_down_8,apg_histogram_down_9,apg_max_0,ppg3_histogram_up_0,ppg3_histogram_up_1,ppg3_histogram_up_2,ppg3_histogram_up_3,ppg3_histogram_up_4,ppg3_histogram_down_0,ppg3_histogram_down_1,ppg3_histogram_down_2,ppg3_histogram_down_3,ppg3_histogram_down_4,ppg3_histogram_down_5,ppg3_histogram_down_6,ppg3_histogram_down_7,ppg3_histogram_down_8,ppg3_histogram_down_9,ppg3_max_0,ppg4_histogram_up_0,ppg4_histogram_up_1,ppg4_histogram_up_2,ppg4_histogram_up_3,ppg4_histogram_up_4,ppg4_histogram_down_0,ppg4_histogram_down_1,ppg4_histogram_down_2,ppg4_histogram_down_3,ppg4_histogram_down_4,ppg4_histogram_down_5,ppg4_histogram_down_6,ppg4_histogram_down_7,ppg4_histogram_down_8,ppg4_histogram_down_9,ppg4_max_0,usdc_0,usdc_1,usdc_2,usdc_3,usdc_4,usdc_5,dsdc_0,dsdc_1,dsdc_2,dsdc_3,dsdc_4,dsdc_5,dsdc_6,dsdc_7,dsdc_8,dsdc_9,dsdc_10,dsdc_11,dsdc_12,dsdc_13,dsdc_14,dsdc_15,dsdc_16,dsdc_17,dsdc_18,ppg_mean_cycles_match_peak_59,Tc,Ts,Td,Tsteepest,Steepest,TNegSteepest,NegSteepest,TdiaRise,DiaRise,SteepDiaRise,TSystoDiaRise,TdiaToEnd,Ratio,Ts_norm,Td_norm,Tsteepest_norm,TNegSteepest_norm,TdiaRise_norm,TSystoDiaRise_norm,TdiaToEnd_norm,SW25,SW25_norm,DW25,DW25_norm,SWaddDW25,SWaddDW25_norm,DWdivSW25,SW50,SW50_norm,DW50,DW50_norm,SWaddDW50,SWaddDW50_norm,DWdivSW50,SW75,SW75_norm,DW75,DW75_norm,SWaddDW75,SWaddDW75_norm,DWdivSW75,S1,S2,S3,S4,AUCsys,AUCdia,S1_norm,S2_norm,S3_norm,S4_norm,AUCsys_norm,AUCdia_norm,SQI_skew,SQI_kurtosis,apg_a,apg_b,apg_c,apg_d,apg_e,ppg_a,ppg_b,ppg_c,ppg_d,ppg_e,ratio_apg_b,ratio_apg_c,ratio_apg_d,ratio_apg_e,ratio_ppg_b,ratio_ppg_c,ratio_ppg_d,ratio_ppg_e,T_a,T_b,T_c,T_d,T_e,T_a_norm,T_b_norm,T_c_norm,T_d_norm,T_e_norm,T_peak_a,T_peak_b,T_peak_c,T_peak_d,T_peak_e,T_peak_a_norm,T_peak_b_norm,T_peak_c_norm,T_peak_d_norm,T_peak_e_norm,AI,bd,bcda,sdoo
3,3_1,160,93,,,,79.36507936507936733506,94.50000000000000000000,0.97481911475852212057,0.00000000000000000000,0.88178543484388360874,29.00000000000000000000,0.83526942948643834175,13.00000000000000000000,0.73865030218382687899,10.00000000000000000000,0.57261356208754288222,5.00000000000000000000,1.66666666666666674068,0.47619047619047616404,0.47619047619047599751,0.71428571428571441260,1.66666666666666696273,1.18644067796610164223,2.03389830508474567239,1.52542372881355881020,1.35593220338983067030,1.35593220338983067030,0.50847457627118597401,0.33898305084745766758,0.33898305084745766758,0.33898305084745766758,1.01694915254237305824,21.00000000000000000000,0.00000000000000000000,0.95238095238095232808,1.19047619047619024357,1.19047619047619090971,1.66666666666666696273,1.52542372881355925429,0.67796610169491522413,4.57627118644067643061,3.22033898305084775870,0.00000000000000000000,0.00000000000000000000,0.00000000000000000000,0.00000000000000000000,0.00000000000000000000,0.00000000000000000000,10.00000000000000000000,2.14285714285714279370,0.23809523809523808202,0.23809523809523799875,1.19047619047619090971,1.19047619047619090971,0.00000000000000000000,0.84745762711864403016,1.18644067796610119814,2.71186440677966134061,3.72881355932203506498,0.67796610169491466902,0.84745762711864436323,0.00000000000000000000,0.00000000000000000000,0.00000000000000000000,6.00000000000000000000,1.19047619047619046562,0.23809523809523808202,0.47619047619047599751,2.14285714285714323779,0.95238095238095255013,0.00000000000000000000,0.00000000000000000000,0.00000000000000000000,0.00000000000000000000,1.69491525423728872646,2.88135593220338748210,3.05084745762711895267,1.86440677966101753249,0.50847457627118652912,0.00000000000000000000,4.00000000000000000000,0.47619047619047616404,0.47619047619047616404,2.61904761904761818059,0.95238095238095255013,0.47619047619047627506,0.00000000000000000000,0.00000000000000000000,0.50847457627118630707,1.35593220338983067030,3.05084745762711895267,2.03389830508474389603,2.03389830508474611648,0.84745762711864436323,0.16949152542372883379,0.00000000000000000000,14.00000000000000000000,0.00619432932789096800,-0.03804609166210910082,-0.14217715560402685582,-0.24888889463287544590,-0.22705774456708621711,-0.11813508791289603628,-0.01232674618705932590,-0.01287264546799407952,0.06254498969179039802,0.18113920242562012164,0.31330923437555074917,0.38968108548967883564,0.42286017051466007199,0.43852470366736095997,0.46345044208680441500,0.47872592431509708444,0.53138398886192073078,0.58956155500555995630,0.62683855065385485350,0.67099803814039937766,0.71241617825406067244,0.73641785991349850704,0.75222096559275009042,0.79160324243949486966,0.87611010450836168673,0.21135278013300390354,0.77600000000000002309,0.20000000000000001110,0.57599999999999995648,0.09199999999999999845,0.07922123012291032440,0.29200000000000003730,-0.04179024615141879728,0.41200000000000003286,0.41082516774654609382,-0.00085129996671309827,0.21199999999999999400,0.36399999999999999023,2.40686118218230937771,0.25765306122448983217,0.74234693877551016783,0.11851615646258503722,0.37606292517006800757,0.53125000000000000000,0.27359693877551022334,0.46875000000000000000,0.12800000000000000266,0.16496598639455781199,0.36399999999999999023,0.46875000000000000000,0.49199999999999999289,0.63371598639455783974,2.84375000000000000000,0.10399999999999999523,0.13403486394557823091,0.14399999999999998912,0.18558673469387754196,0.24799999999999999822,0.31962159863945582838,1.38461538461538458122,0.07599999999999999811,0.09789540816326530726,0.08399999999999999134,0.10831207482993196467,0.16000000000000000333,0.20620748299319729968,1.11111111111111116045,1.20579536235691131552,9.88080703736405396853,16.78030073409100708659,9.21517951061855278283,11.08660239972096483996,25.99548024470956164578,0.10899775675708442413,0.89100224324291554812,0.65194991803606339165,0.34805008196393660835,0.29957093231598957983,0.70042906768401047568,0.56516208003831924778,0.48660175538073091595,0.00680958933391355263,-0.01069504777794705319,-0.00023887127616972759,-0.00731322179527221783,0.00775963866484258302,0.15020749714328210378,0.80521032571818662582,0.94543191336780152412,0.88978518759820746098,0.42957575833033695423,-2.72005586390504916494,0.08825318715485878929,-1.73324323518051981452,1.86989087029839784471,53.45805156269892677301,61.50660590763190782582,58.14621861893935061971,33.22326449514168444921,0.02400000000000000050,0.09199999999999999845,0.09199999999999999845,0.02800000000000000058,0.13600000000000000977,0.03125000000000000000,0.11819727891156461830,0.11830357142857142461,0.03624574829931972997,0.17591411564625850095,0.17599999999999998979,0.08399999999999999134,0.00800000000000000017,0.03600000000000000422,0.17199999999999998623,0.22640306122448980441,0.10820578231292517224,0.01009778911564625931,0.04634353741496598234,0.22225765306122446940,-2.94495668617778605380,-0.00512105804077737752,-1.07506581587938820910,0.01345045429565503228
3,3_3,160,93,,,,75.37688442211056383258,99.50000000000000000000,0.96737016905711692427,0.00000000000000000000,0.84953771618125928367,31.00000000000000000000,0.78302641847168019673,15.00000000000000000000,0.77506697876322250274,11.00000000000000000000,0.62662207074615883240,8.00000000000000000000,1.57894736842105265495,0.52631578947368418131,0.52631578947368407029,0.52631578947368429233,1.84210526315789513419,1.47540983606557385421,2.29508196721311463762,1.63934426229508156680,0.81967213114754122749,1.31147540983606569753,0.32786885245901609132,0.32786885245901642438,0.32786885245901642438,0.32786885245901642438,1.14754098360655754085,19.00000000000000000000,0.00000000000000000000,0.52631578947368418131,1.57894736842105198882,1.05263157894736858466,1.84210526315789513419,1.14754098360655731881,0.65573770491803273774,3.93442622950819531624,4.26229508196721429414,0.00000000000000000000,0.00000000000000000000,0.00000000000000000000,0.00000000000000000000,0.00000000000000000000,0.00000000000000000000,9.00000000000000000000,2.10526315789473672524,0.26315789473684209065,0.26315789473684203514,0.78947368421052654952,1.57894736842105309904,0.00000000000000000000,0.49180327868852458106,0.98360655737704882906,1.63934426229508245498,4.59016393442623016341,1.31147540983606436527,0.49180327868852469209,0.49180327868852469209,0.00000000000000000000,0.00000000000000000000,6.00000000000000000000,1.05263157894736836262,0.52631578947368418131,0.26315789473684203514,2.36842105263157920447,0.78947368421052654952,0.00000000000000000000,0.00000000000000000000,0.16393442622950812892,0.16393442622950821219,0.32786885245901642438,1.96721311475409676994,3.77049180327868960205,2.29508196721311508171,1.14754098360655754085,0.16393442622950821219,30.00000000000000000000,0.78947368421052632748,0.78947368421052632748,1.57894736842105198882,1.05263157894736858466,0.78947368421052654952,0.00000000000000000000,0.00000000000000000000,0.16393442622950812892,0.65573770491803284877,1.63934426229508245498,2.95081967213114459980,2.29508196721311508171,1.14754098360655754085,0.81967213114754122749,0.32786885245901642438,71.00000000000000000000,-0.00872761066726810558,-0.06217994563063866664,-0.17707427985199725162,-0.27026458687911503187,-0.26194010689780189427,-0.15654470270076370486,-0.01585853968213779552,-0.03350020653179971997,0.00940882680089322881,0.14923600172010581533,0.29913589301929299769,0.39535673309575325440,0.40164702478632818838,0.45019875306763262879,0.50129211367105330766,0.57157971961217179935,0.61164631571491190343,0.65903945429222310359,0.66774407853370199017,0.69088198291871372181,0.71904445857193333147,0.76805106733611538949,0.76824681253410176396,0.84784178544916821707,0.89617722396233334692,0.19596648301540137149,0.80800000000000005151,0.18800000000000000044,0.61999999999999999556,0.08000000000000000167,0.08215642674943712809,0.29200000000000003730,-0.04687042911473132678,0.36399999999999999023,0.45555641751990610944,-0.00327269922049092110,0.17599999999999998979,0.44400000000000000577,2.17225593117192783410,0.23243720565149136870,0.76756279434850860355,0.09909733124018837991,0.36126373626373625703,0.45045133437990581005,0.21801412872841444135,0.54954866562009418995,0.12399999999999999911,0.15345368916797488823,0.30799999999999999600,0.38167189952904234662,0.43199999999999999512,0.53512558869701720710,2.48749999999999982236,0.09600000000000000200,0.11862244897959184353,0.15599999999999999978,0.19397566718995290502,0.25200000000000000178,0.31259811616954469304,1.65384615384615374367,0.07200000000000000844,0.08889324960753532123,0.09600000000000000200,0.11921114599686027935,0.16800000000000001044,0.20810439560439558671,1.36250000000000004441,1.15634922934710004938,9.87113137154475950297,16.17496786103239259091,11.40268809178073539101,11.02748060089185955235,27.57765595281312798193,0.10822729038784814626,0.89177270961215182599,0.58651030327789088759,0.41348969672210900139,0.28527678625362901110,0.71472321374637093339,0.64763287410856884563,0.48965798239538649295,0.01143133397209434264,-0.01073927227755022695,0.00048509002005020507,-0.00926611964129486765,0.00961772122838833177,0.13474968024716338366,0.78390799398034716194,0.96198302067449770192,0.90463462860822052569,0.45736675089695200125,-0.98473074917237324311,0.05126671914082266829,-0.82699041204048540088,0.86941095524893019508,32.88597806943703005800,39.06536875358936811153,36.47304107632771774661,17.40820144506767164216,0.02000000000000000042,0.08400000000000000522,0.07599999999999999811,0.05600000000000000117,0.10799999999999999878,0.02551020408163265363,0.10302197802197801679,0.09517268445839874302,0.06848508634222920388,0.13363422291993720670,0.16800000000000001044,0.08399999999999999134,-0.00800000000000000017,0.04800000000000000100,0.15599999999999999978,0.20692700156985871507,0.10390502354788069828,-0.00873233908948194831,0.05975274725274724863,0.19338697017268446920,-1.07841801152164062927,-0.00505626075617546418,-0.20900705627271043419,0.00753342775200432913
3,3_2,160,93,,,,79.36507936507936733506,94.50000000000000000000,0.97835473139452222568,77.00000000000000000000,0.89792496816867806153,29.00000000000000000000,0.86319123766449945556,13.00000000000000000000,0.72516831600421371995,7.00000000000000000000,0.61603438882994410175,36.00000000000000000000,1.52173913043478270524,0.65217391304347827052,0.43478260869565199531,0.65217391304347838155,1.73913043478260909147,2.10526315789473672524,2.10526315789473672524,1.05263157894736814058,1.22807017543859675612,1.05263157894736858466,0.35087719298245584332,0.35087719298245617638,0.35087719298245617638,0.35087719298245617638,1.05263157894736858466,23.00000000000000000000,0.00000000000000000000,0.43478260869565216185,1.52173913043478203910,1.08695652173913082095,1.95652173913043503362,1.22807017543859653408,0.52631578947368418131,2.63157894736841990735,5.61403508771929882215,0.00000000000000000000,0.00000000000000000000,0.00000000000000000000,0.00000000000000000000,0.00000000000000000000,0.00000000000000000000,10.00000000000000000000,1.95652173913043481157,0.65217391304347827052,0.43478260869565199531,0.65217391304347838155,1.30434782608695676309,0.00000000000000000000,1.40350877192982448349,0.17543859649122800493,3.68421052631579026837,3.33333333333333392545,0.35087719298245584332,1.05263157894736858466,0.00000000000000000000,0.00000000000000000000,0.00000000000000000000,7.00000000000000000000,0.43478260869565216185,1.08695652173913037686,0.86956521739130399062,1.73913043478260909147,0.86956521739130454574,0.00000000000000000000,0.00000000000000000000,0.00000000000000000000,0.17543859649122808819,1.57894736842105287700,3.85964912280701399894,3.15789473684210575399,0.70175438596491235277,0.00000000000000000000,0.52631578947368429233,33.00000000000000000000,0.21739130434782608092,0.43478260869565216185,1.95652173913043414544,1.95652173913043503362,0.43478260869565227287,0.00000000000000000000,0.00000000000000000000,0.35087719298245600985,0.87719298245614063525,2.80701754385964941108,2.28070175438596312034,2.63157894736842168371,1.05263157894736858466,0.00000000000000000000,0.00000000000000000000,12.00000000000000000000,0.03866319565418133153,-0.00595625284770677325,-0.11799668037754018624,-0.22413189110225698042,-0.20195415872938166091,-0.09846360079352467487,-0.00927373093664747745,-0.01968178022522308959,0.06018361891209890457,0.18391111449114577736,0.32587523650443556145,0.40786120901965994268,0.45293092118456779183,0.48996710493164263855,0.51520505097956836860,0.57229761479808338720,0.63393357092734958780,0.69988075606951205554,0.74753457668669631708,0.76653188137526651058,0.78913288454864760624,0.81346388711344841393,0.87157503491105536853,0.88260650006591601091,0.95602987480295897882,0.14234313467321019209,0.75200000000000000178,0.21600000000000002531,0.53600000000000003197,0.08399999999999999134,0.07619627680006993420,0.29200000000000003730,-0.04921037195852240309,0.41600000000000003642,0.37963924590124842329,-0.00705688494625120177,0.20000000000000001110,0.33599999999999996536,2.62759076750792619492,0.28704545454545454808,0.71295454545454539641,0.11181818181818181657,0.38886363636363635576,0.55204545454545450589,0.26500000000000001332,0.44795454545454543860,0.14399999999999998912,0.19227272727272726183,0.27600000000000002309,0.36749999999999999334,0.41999999999999998446,0.55977272727272731068,1.91666666666666651864,0.11599999999999999201,0.15454545454545454142,0.13200000000000000622,0.17590909090909090384,0.24799999999999999822,0.33045454545454544526,1.13809523809523804871,0.08399999999999999134,0.11181818181818181657,0.08000000000000000167,0.10681818181818181213,0.16400000000000000688,0.21863636363636362869,0.95454545454545458583,1.06565892575547960242,12.14375898430159672614,16.13202759782960171719,6.29890139698434481375,13.20941791005707699469,22.43092899481394653094,0.08218802488408667728,0.91781197511591328109,0.71823991208791038154,0.28176008791208967397,0.37134532091313454671,0.62865467908686545329,0.56757809967763817038,0.52761978997358793819,0.01493044756726935596,-0.00705470305080047044,0.00074268367754787290,-0.00964784266923501832,0.00836760693642699116,0.21311751733133979525,0.60114380618565266268,0.79071814507035220743,0.88361536211545810282,0.45859040580320431513,-0.47226043413182261510,0.05380762523848586082,-0.65192177675050477781,0.57502583053503686372,3.39136967654188303811,4.52627928642125176850,4.69308144700627316581,2.45049016144319287136,0.04399999999999999745,0.04800000000000000100,0.07600000000000001199,0.08799999999999999489,0.09199999999999999845,0.05636363636363636576,0.06613636363636363202,0.10659090909090908339,0.11204545454545454530,0.12181818181818182545,0.17199999999999998623,0.12399999999999999911,-0.04800000000000000100,0.04000000000000000083,0.13200000000000000622,0.23068181818181818232,0.16454545454545455030,-0.05795454545454545303,0.05409090909090909227,0.17590909090909090384,-0.44917211315484056877,-0.00492884725431557910,0.12585371738019623944,0.01823771705866986115
11,11_2,126,78,,,,100.00000000000000000000,75.00000000000000000000,0.97487580492693692857,78.00000000000000000000,0.89989610295323108069,34.00000000000000000000,0.82987324860771116697,16.00000000000000000000,0.87493117667027930917,10.00000000000000000000,0.68941787966843448565,5.00000000000000000000,1.73913043478260864738,0.86956521739130432369,0.43478260869565199531,0.65217391304347838155,1.30434782608695676309,2.10526315789473672524,1.40350877192982448349,1.75438596491228016028,0.87719298245614063525,0.52631578947368429233,0.52631578947368373722,0.52631578947368429233,0.35087719298245617638,0.70175438596491235277,1.22807017543859675612,23.00000000000000000000,0.00000000000000000000,0.65217391304347827052,1.08695652173913015481,1.52173913043478292728,1.73913043478260909147,2.28070175438596489670,1.22807017543859653408,6.14035087719298022790,0.35087719298245617638,0.00000000000000000000,0.00000000000000000000,0.00000000000000000000,0.00000000000000000000,0.00000000000000000000,0.00000000000000000000,14.00000000000000000000,1.08695652173913037686,0.43478260869565216185,0.65217391304347804848,1.73913043478260909147,1.08695652173913082095,0.35087719298245612087,0.17543859649122806044,1.22807017543859608999,2.10526315789473716933,2.98245614035087758253,3.15789473684210220128,0.00000000000000000000,0.00000000000000000000,0.00000000000000000000,0.00000000000000000000,7.00000000000000000000,0.00000000000000000000,1.08695652173913037686,1.73913043478260798125,1.08695652173913082095,1.08695652173913082095,0.00000000000000000000,0.00000000000000000000,0.00000000000000000000,0.00000000000000000000,0.17543859649122808819,1.05263157894736747444,4.21052631578947433866,2.63157894736842168371,1.22807017543859675612,0.70175438596491235277,25.00000000000000000000,0.65217391304347827052,3.47826086956521729476,0.86956521739130399062,0.00000000000000000000,0.00000000000000000000,0.00000000000000000000,0.00000000000000000000,1.57894736842105221086,1.92982456140350921991,3.33333333333333392545,0.87719298245613963605,1.57894736842105287700,0.52631578947368429233,0.17543859649122808819,0.00000000000000000000,79.00000000000000000000,0.05199359862089344975,0.02869131050040837558,-0.05423816817427286330,-0.15112909062280788230,-0.16863620698201475800,-0.09066787650951088628,-0.00649651572391494059,-0.02024751857026814428,0.02775931213536114370,0.08345041521684470887,0.17945589127136962748,0.28708224316900754491,0.38977224319501924121,0.47043886922654026828,0.53374804677842435652,0.58487803887632627831,0.60650395506023491166,0.62237843875691578610,0.67099849540772737999,0.73361596923432215167,0.78198978223112503017,0.82240823955468411732,0.86070171813665063976,0.89286458398016832483,0.96667604027731290905,0.17080523795609756088,0.58933333333333337567,0.17600000000000001754,0.41333333333333333037,0.07733333333333332338,0.07410662026846301376,0.23733333333333331283,-0.02794670139178930326,0.32000000000000000666,0.51427071445318450760,-0.01018711817970306167,0.14399999999999998912,0.26933333333333331350,2.04697867157908941493,0.29709945595696557463,0.70290054404303436986,0.12567835578105154837,0.39689841134000314327,0.52740761116884360415,0.23030815521187794626,0.47259238883115650687,0.12266666666666665997,0.20806419843647058765,0.32000000000000000666,0.54413472706155630032,0.44266666666666670826,0.75219892549802691573,2.61670437405731526326,0.08800000000000000877,0.15025707901189286342,0.14400000000000001688,0.24490426608526735808,0.23199999999999998401,0.39516134509716022150,1.63939393939393940336,0.06400000000000000133,0.10903104645081539148,0.08533333333333333048,0.14587111409961217579,0.14933333333333334569,0.25490216055042758114,1.34193121693121697469,0.75318771630656422555,7.10469842007426510833,9.08706414128124073670,7.47371565542270399618,7.85788613638082988899,16.56077979670394739742,0.09563266084168318970,0.90436733915831679642,0.55749951252680940428,0.44250048747319059572,0.32157962856218519354,0.67842037143781475095,0.45335307471367897181,0.55577377315124343315,0.01418010928422047505,-0.01066254687356615882,-0.00014246133145889850,-0.00586996571906528430,0.00531879268236806757,0.21852334045681506836,0.76553889871643365783,0.86553690744548961167,0.75639718268195943462,0.43748047453291899478,-0.81833311577859502162,-0.01845442394789655396,-0.44455216661643254250,0.37864242417594512480,6.65310370704391118579,7.24533476404380394342,6.29396173416531024003,3.62040308033407676191,0.03733333333333332948,0.06933333333333333015,0.08266666666666666607,0.04000000000000000083,0.08266666666666666607,0.05787334189131365658,0.12142313779027515130,0.14122195733235529125,0.06935190279221087328,0.13903321990613390358,0.13866666666666668806,0.06933333333333333015,0.01333333333333333419,0.05333333333333332288,0.13600000000000000977,0.23922611406565194581,0.11780297627537679450,0.02341898105697848634,0.09277088384918935615,0.23180410375532325973,-0.73396894939021084525,-0.00508731396629338601,-0.35532652521426583148,0.03584513668781463130
11,11_3,126,78,,,,92.59259259259259522423,81.00000000000000000000,0.97195684188577913254,0.00000000000000000000,0.90912819925366927798,32.00000000000000000000,0.87002476451197063856,17.00000000000000000000,0.71249638256451408580,10.00000000000000000000,0.53835095302429569752,4.00000000000000000000,1.60000000000000008882,0.80000000000000004441,0.59999999999999975575,0.60000000000000008882,1.40000000000000035527,0.00000000000000000000,2.36363636363636375748,1.45454545454545391969,1.27272727272727292913,1.63636363636363668661,0.72727272727272662678,0.36363636363636370197,0.54545454545454563622,0.54545454545454563622,1.09090909090909127244,25.00000000000000000000,0.00000000000000000000,0.59999999999999997780,1.59999999999999942268,1.40000000000000035527,1.40000000000000035527,2.00000000000000000000,0.90909090909090906063,6.90909090909090739530,0.18181818181818185098,0.00000000000000000000,0.00000000000000000000,0.00000000000000000000,0.00000000000000000000,0.00000000000000000000,0.00000000000000000000,14.00000000000000000000,1.39999999999999991118,0.40000000000000002220,0.59999999999999975575,2.60000000000000053291,0.00000000000000000000,0.00000000000000000000,0.54545454545454541417,0.54545454545454530315,1.45454545454545480787,5.09090909090909171653,1.09090909090908994017,1.27272727272727292913,0.00000000000000000000,0.00000000000000000000,0.00000000000000000000,6.00000000000000000000,0.00000000000000000000,1.60000000000000008882,2.39999999999999902300,1.00000000000000022204,0.00000000000000000000,0.00000000000000000000,0.00000000000000000000,0.00000000000000000000,0.36363636363636370197,0.90909090909090939370,3.81818181818181434650,2.54545454545454585826,2.18181818181818254487,0.00000000000000000000,0.18181818181818185098,79.00000000000000000000,0.20000000000000001110,2.00000000000000000000,1.79999999999999937828,1.00000000000000022204,0.00000000000000000000,0.00000000000000000000,0.18181818181818182323,0.90909090909090883859,1.81818181818181878739,2.36363636363636420157,2.36363636363636153703,1.81818181818181878739,0.54545454545454563622,0.00000000000000000000,0.00000000000000000000,79.00000000000000000000,0.03985161303948474287,0.00586431770405782329,-0.06495680637651184142,-0.15003843058866125904,-0.16307578600314548423,-0.08924836634787666756,-0.00782237582945182440,-0.02513855441996522277,0.01951228324614367668,0.08685072111065195166,0.18020199472551762243,0.27622418710485552307,0.34914219062444556974,0.39075887625934269121,0.40523680248210669497,0.41642795682361416487,0.45830922801024454039,0.50692757780283981273,0.54588594195917639063,0.60695332405195367986,0.64212693322969971454,0.67882456394088241947,0.72118236119331913248,0.73419714323165541359,0.77222954791055176127,0.24278254568874646502,0.62399999999999999911,0.16800000000000001044,0.45600000000000001643,0.07199999999999999456,0.03714058099721118111,0.23200000000000001177,-0.01570634966847972436,0.35199999999999997957,0.65143340051399811763,0.00005610136071532157,0.18399999999999999689,0.27200000000000001954,1.34910309657958871199,0.26923076923076921796,0.73076923076923072653,0.11538461538461539102,0.37179487179487180626,0.56410256410256409687,0.29487179487179487891,0.43589743589743590313,0.16800000000000001044,0.26923076923076921796,0.44800000000000000933,0.71794871794871795156,0.61599999999999999201,0.98717948717948722503,2.66666666666666651864,0.16800000000000001044,0.26923076923076921796,0.44800000000000000933,0.71794871794871795156,0.61599999999999999201,0.98717948717948722503,2.66666666666666651864,0.08799999999999999489,0.14102564102564102422,0.16000000000000000333,0.25641025641025638748,0.24799999999999999822,0.39743589743589741170,1.81818181818181812126,0.39211455221765989521,3.74841848954252387927,7.07803062888134970621,4.62150237753858483813,4.14053304176018421856,11.69953300641993365616,0.09470146675872627429,0.90529853324127362857,0.60498403013157808772,0.39501596986842196779,0.26139619804400338055,0.73860380195599661945,0.36468613819495449002,0.49475266249419441733,0.00684203213909523322,-0.00284699775613894701,-0.00035604666705368881,-0.00331931758681269784,0.00284961395245375559,0.50780035654754462904,0.77354418117753809270,0.85071384857710208305,0.82464933387548222665,0.65143340051399811763,-0.41610411910684536041,-0.05203814595071036553,-0.48513621674563384145,0.41648649034708840055,1.52332343056382280011,1.67529194812105441947,1.62396367635923755124,1.28285337360334317225,0.02400000000000000050,0.06400000000000000133,0.11200000000000000233,0.01600000000000000033,0.11999999999999999556,0.03846153846153846367,0.10256410256410256054,0.17948717948717948789,0.02564102564102564014,0.19230769230769231837,0.14399999999999998912,0.08000000000000000167,0.03200000000000000067,0.04800000000000000100,0.16800000000000001044,0.23076923076923078204,0.12820512820512819374,0.05128205128205128027,0.07692307692307692735,0.26923076923076921796,-0.29541624675758959562,-0.00281089148496160846,0.12107024358949883269,0.02184330794514042010
11,11_1,126,78,,,,91.46341463414634631590,82.00000000000000000000,0.96643656844828795816,0.00000000000000000000,0.89690128467303953386,31.00000000000000000000,0.95688680703705508712,17.00000000000000000000,0.74366281804256395560,11.00000000000000000000,0.49496458235231666212,70.00000000000000000000,1.53846153846153854694,0.76923076923076927347,0.57692307692307676081,0.76923076923076938449,1.34615384615384647837,0.00000000000000000000,2.22222222222222232091,0.92592592592592570799,1.11111111111111138250,1.66666666666666696273,1.29629629629629516963,0.55555555555555569125,0.55555555555555569125,0.55555555555555569125,1.11111111111111138250,26.00000000000000000000,0.00000000000000000000,0.76923076923076927347,1.34615384615384559019,1.34615384615384647837,1.53846153846153876898,2.22222222222222232091,3.33333333333333348136,4.44444444444444286546,0.00000000000000000000,0.00000000000000000000,0.00000000000000000000,0.00000000000000000000,0.00000000000000000000,0.00000000000000000000,0.00000000000000000000,15.00000000000000000000,1.34615384615384625633,0.38461538461538463674,0.57692307692307676081,1.34615384615384647837,1.34615384615384647837,0.18518518518518517491,0.37037037037037034981,0.37037037037037023879,0.55555555555555569125,3.88888888888888972772,2.59259259259259033925,1.48148148148148184333,0.55555555555555569125,0.00000000000000000000,0.00000000000000000000,8.00000000000000000000,0.00000000000000000000,1.73076923076923083755,1.15384615384615352163,1.73076923076923105960,0.38461538461538469225,0.00000000000000000000,0.00000000000000000000,0.37037037037037023879,0.55555555555555569125,0.92592592592592615208,2.59259259259259033925,2.59259259259259300379,2.03703703703703764560,0.92592592592592615208,0.00000000000000000000,3.00000000000000000000,0.00000000000000000000,0.00000000000000000000,2.30769230769230704325,2.69230769230769295675,0.00000000000000000000,0.37037037037037034981,0.00000000000000000000,0.37037037037037023879,1.29629629629629650189,2.96296296296296368666,3.33333333333333037274,1.11111111111111138250,0.55555555555555569125,0.00000000000000000000,0.00000000000000000000,24.00000000000000000000,0.06100166649421318033,0.04603910499588773075,-0.02270136425375414435,-0.10885193253055414075,-0.12973703927572080574,-0.07507307442322416757,-0.00712763708232065293,-0.02220546968759954526,0.02134384751263594324,0.06775750810743066954,0.14133645884889600719,0.22007323879746437667,0.27658106427862194643,0.31229460788299934215,0.33908176197003292440,0.36224552409029286970,0.38532379981317155249,0.42201999048524529989,0.47651644173853702213,0.53376468347325012331,0.59280281712294191632,0.66985794859181724270,0.72962692763269276774,0.72371419801911851533,0.76250439764107746932,0.20484589152263010803,0.63466666666666660124,0.21333333333333329151,0.42133333333333333748,0.11999999999999999556,0.06971045700865526051,0.25866666666666665586,-0.02239586037950976397,0.33866666666666667140,0.57304496043134756089,-0.00662369336746874548,0.12533333333333332438,0.29600000000000004086,1.60665667923597221822,0.33026714553613284453,0.66973285446386709996,0.18083810528430779851,0.39666842475386782096,0.51311449333601233391,0.18284734779987946163,0.48688550666398766609,0.12266666666666665997,0.19350261201527022004,0.33600000000000002087,0.53786794253566405644,0.45866666666666672247,0.73137055455093424872,2.76388888888888883955,0.09066666666666665930,0.14413803496081975530,0.18133333333333334636,0.28571009979237826926,0.27200000000000001954,0.42984813475319799680,1.99287749287749282878,0.06133333333333332998,0.09749849306811331218,0.08800000000000000877,0.14099022168642419417,0.14933333333333334569,0.23848871475453756186,1.46296296296296302053,1.65168743715536092687,7.42007488603516573988,10.33811247283795609064,10.47821265579018756853,9.07176232319052644471,20.81632512862814721188,0.17041024185159558968,0.82958975814840441032,0.44966203488931988375,0.55033796511068011625,0.30125344782028795620,0.69874655217971204380,0.31693918888113659094,0.52977795876727939994,0.00855265590959728567,-0.00805308752624230538,0.00006421063536469578,-0.00639675178749972862,0.00531767268649123003,0.09174894928888305268,0.66083173101363534840,0.85901221253769177721,0.80458700775156621887,0.52303981659690623740,-1.01681666874689780045,-0.02060042402085016100,-1.02733096014618818792,0.73203245665690375166,7.67738908063754621480,9.84271076559427982033,9.23336698796481414320,5.79284649047924293797,0.00800000000000000017,0.12266666666666665997,0.08800000000000000877,0.02933333333333333279,0.08266666666666665220,0.01480141986471100214,0.18431032750653000840,0.13949584756546781761,0.04706232000535798266,0.13586456031076285522,0.20533333333333333992,0.08266666666666666607,0.00533333333333333316,0.03466666666666667201,0.11733333333333333115,0.31546572567142189270,0.13115539816489182878,0.00834044940057598189,0.05540276940593396454,0.19126732971669679895,-0.70091774123676309216,-0.00532491483075459276,0.03111471542014059011,0.01502671351266226564
13,13_1,89,42,,,,83.33333333333332859638,90.00000000000000000000,0.96697019623321678328,0.00000000000000000000,0.85405703475689820348,31.00000000000000000000,0.76754060523075839928,16.00000000000000000000,0.73998682203042853711,9.00000000000000000000,0.67853983594737454776,6.00000000000000000000,1.66666666666666674068,0.71428571428571430157,0.47619047619047599751,0.71428571428571441260,1.42857142857142882519,0.00000000000000000000,3.38983050847457612065,1.69491525423728761623,0.84745762711864436323,0.67796610169491533515,0.84745762711864336403,0.50847457627118652912,0.50847457627118652912,0.50847457627118652912,1.01694915254237305824,21.00000000000000000000,0.00000000000000000000,1.42857142857142860315,0.95238095238095199502,0.95238095238095255013,1.66666666666666696273,1.86440677966101686636,2.88135593220338970255,4.57627118644067643061,0.67796610169491533515,0.00000000000000000000,0.00000000000000000000,0.00000000000000000000,0.00000000000000000000,0.00000000000000000000,0.00000000000000000000,11.00000000000000000000,1.66666666666666674068,0.47619047619047616404,0.71428571428571407953,1.42857142857142882519,0.71428571428571441260,0.00000000000000000000,0.33898305084745761206,0.50847457627118630707,1.18644067796610186427,7.11864406779661251790,0.84745762711864336403,0.00000000000000000000,0.00000000000000000000,0.00000000000000000000,0.00000000000000000000,6.00000000000000000000,0.23809523809523808202,1.42857142857142860315,0.95238095238095199502,2.38095238095238181941,0.00000000000000000000,0.00000000000000000000,0.00000000000000000000,0.00000000000000000000,0.00000000000000000000,0.33898305084745766758,3.38983050847457345611,5.25423728813559431927,1.01694915254237305824,0.00000000000000000000,0.00000000000000000000,1.00000000000000000000,0.00000000000000000000,0.95238095238095232808,2.38095238095238048714,1.66666666666666696273,0.00000000000000000000,0.00000000000000000000,0.16949152542372880603,0.67796610169491500208,2.54237288135593253458,4.23728813559322148308,2.20338983050847270206,0.16949152542372883379,0.00000000000000000000,0.00000000000000000000,0.00000000000000000000,17.00000000000000000000,0.01086711189798715907,-0.02723562854313983303,-0.11366379941722573599,-0.21263509631609128769,-0.21727235592873719860,-0.12735830761244898435,-0.01005971364943886517,-0.01269890805105372208,0.02206889952421623238,0.10013179802585428502,0.19353444537804700976,0.27268513417400153109,0.33143592744594707611,0.39371313723672790585,0.46561865144454539500,0.54087102980710888289,0.59797985883557847053,0.63363249803110321956,0.65139111228714929869,0.67945546967507208791,0.70654253369779884686,0.73261954930997563729,0.73705062004377230878,0.73033628609418954625,0.75440306751921437645,0.23056327086436076423,0.76000000000000000888,0.20400000000000001465,0.55599999999999993872,0.09600000000000000200,0.07879465765740509275,0.29200000000000003730,-0.02812944203711092994,0.44800000000000000933,0.43125450555605437941,-0.00672933745967138619,0.24399999999999999467,0.31199999999999999956,2.69442993720442913741,0.28021978021978022344,0.71978021978021977656,0.13633241758241759767,0.39983974358974361252,0.59340659340659340781,0.31318681318681318437,0.40659340659340659219,0.11999999999999999556,0.16117216117216115467,0.35599999999999998312,0.47905219780219776560,0.47599999999999997868,0.64022435897435903129,2.96875000000000000000,0.09600000000000000200,0.12854853479853478593,0.20000000000000001110,0.27964743589743590313,0.29600000000000004086,0.40819597069597068906,2.12587412587412583065,0.06400000000000000133,0.08505036630036630352,0.10799999999999999878,0.14972527472527472070,0.17199999999999998623,0.23477564102564102422,1.73809523809523813753,0.93427479608697150404,9.62092756815986582808,19.56396882178407281572,7.73866462500447305217,10.55520236424683844234,27.30263344678854764425,0.09042867386495788418,0.90957132613504210195,0.71438673237044481024,0.28561326762955513425,0.27758943281803838410,0.72241056718196161590,0.29653202164009834219,0.53342503630018578420,0.01220868666619246562,-0.00894950060927501845,-0.00136740854222416885,-0.00310049714073368232,0.00287718489554678047,0.15583706217861847954,0.74575447856913967826,0.92129696115015236035,0.89003732243333422147,0.61423670766500249041,-0.73123602031354795194,-0.12326034095788868106,-0.25858768936753723233,0.24081211993495510448,4.96047586270693496857,5.99537038936821709001,5.78935848538208830405,4.05478228371315196910,0.05199999999999999761,0.06800000000000000488,0.11200000000000000233,0.01600000000000000033,0.08399999999999999134,0.07554945054945055860,0.09535256410256409687,0.15224358974358975782,0.02174908424908424814,0.11126373626373625703,0.15199999999999999623,0.08399999999999999134,0.02800000000000000058,0.04399999999999999745,0.12800000000000000266,0.20467032967032966484,0.10931776556776556797,0.04292582417582417598,0.06467490842490841718,0.17593864468864467421,-0.59020010992307714304,-0.00458450291976796737,-0.34938798998812214958,0.01028428131175012500
13,13_3,89,42,,,,94.93670886075949510996,79.00000000000000000000,0.97430833709699982137,0.00000000000000000000,0.89886028572697829198,34.00000000000000000000,0.88488338184746451187,15.00000000000000000000,0.89394945902413769367,10.00000000000000000000,0.76338868351695621239,6.00000000000000000000,1.66666666666666674068,0.47619047619047616404,0.71428571428571407953,0.47619047619047627506,1.66666666666666696273,0.00000000000000000000,2.71186440677966089652,1.52542372881355881020,1.35593220338983067030,1.01694915254237305824,0.67796610169491466902,0.50847457627118652912,0.33898305084745766758,0.67796610169491533515,1.18644067796610186427,21.00000000000000000000,0.00000000000000000000,0.95238095238095232808,1.19047619047619024357,0.95238095238095255013,1.90476190476190510026,2.20338983050847447842,1.35593220338983044826,4.23728813559321881854,2.20338983050847492251,0.00000000000000000000,0.00000000000000000000,0.00000000000000000000,0.00000000000000000000,0.00000000000000000000,0.00000000000000000000,10.00000000000000000000,1.90476190476190465617,0.23809523809523808202,0.47619047619047599751,0.95238095238095255013,1.42857142857142882519,0.00000000000000000000,0.33898305084745761206,0.50847457627118630707,1.01694915254237305824,5.42372881355932268121,2.71186440677965867607,0.00000000000000000000,0.00000000000000000000,0.00000000000000000000,0.00000000000000000000,6.00000000000000000000,1.19047619047619046562,0.47619047619047616404,0.47619047619047599751,1.42857142857142882519,1.42857142857142882519,0.00000000000000000000,0.00000000000000000000,0.00000000000000000000,0.00000000000000000000,0.00000000000000000000,0.50847457627118597401,6.27118644067796715547,2.54237288135593253458,0.67796610169491533515,0.00000000000000000000,2.00000000000000000000,0.95238095238095232808,0.47619047619047616404,0.95238095238095199502,1.66666666666666696273,0.95238095238095255013,0.00000000000000000000,0.00000000000000000000,0.00000000000000000000,0.84745762711864436323,3.89830508474576387101,3.89830508474575943012,1.18644067796610186427,0.16949152542372883379,0.00000000000000000000,0.00000000000000000000,15.00000000000000000000,0.00443782408406888981,-0.05276733304979831091,-0.15359290422475030402,-0.24758642093568394849,-0.22578519427640997286,-0.11947729539568612001,-0.01106328808721661339,-0.02432089752752442449,-0.00059390333608467204,0.05670184784329454497,0.14568767180855529686,0.24108234814119045009,0.32963323296538588059,0.38710758959283148029,0.43192049764352585806,0.46838280176523755527,0.50928081557674931279,0.54921732812557833014,0.59875982588991516486,0.64134964294056684420,0.67744194023466675070,0.69851028011174709498,0.72132422878308166680,0.72381164002150988335,0.73254516661681501333,0.26355984647051416969,0.77200000000000001954,0.17599999999999998979,0.59599999999999997424,0.07599999999999999811,0.08842356614705806916,0.27600000000000002309,-0.03526270649577967209,0.37600000000000000089,0.43645076690569439837,-0.01070827573066390759,0.20000000000000001110,0.39600000000000001865,2.29584343885933872542,0.23401675485008816002,0.76598324514991178447,0.10190696649029981624,0.36612654320987653156,0.50336199294532635307,0.26934523809523808202,0.49663800705467370245,0.10799999999999999878,0.14274691358024690913,0.35999999999999998668,0.49233906525573190027,0.46799999999999997158,0.63508597883597883715,3.35989010989010949970,0.08399999999999999134,0.11083553791887124085,0.16000000000000000333,0.21274250440917108484,0.24399999999999999467,0.32357804232804232569,1.90909090909090917165,0.05999999999999999778,0.07892416225749558645,0.09600000000000000200,0.12764550264550264536,0.15599999999999999978,0.20656966490299821793,1.60714285714285720630,0.84786247460555008715,9.11257739024786594939,17.93812361908525332410,9.46331209601916789609,9.96043986485341648063,27.40143571510441944383,0.08517868632315636623,0.91482131367684360601,0.65413582329206465538,0.34586417670793534462,0.26675452813726197032,0.73324547186273791866,0.57452581042054151617,0.48827238011192375389,0.01272533451965270415,-0.01040041048984879923,-0.00109087477937458432,-0.00492829094516206156,0.00440034201999189856,0.14709231017719565093,0.85283613571720451318,0.89838934032523254380,0.84712605330312928942,0.46809428136574576795,-0.81731412936203984287,-0.08570331899466225589,-0.38714220466437765378,0.34577819971192019777,6.03017225581942017953,6.37418279499513751318,5.99826189930101794090,3.36510374441971338300,0.03200000000000000067,0.07599999999999999811,0.11200000000000000233,0.01600000000000000033,0.10399999999999999523,0.04254850088183421281,0.10019841269841270326,0.15233686067019400201,0.02127425044091710640,0.13486552028218695698,0.14399999999999998912,0.06800000000000000488,0.04399999999999999745,0.05999999999999999778,0.16400000000000000688,0.19146825396825395416,0.09126984126984126477,0.06106701940035273030,0.08234126984126984017,0.21720679012345678327,-0.69024680541492011709,-0.00514614330114358635,-0.34446860570299991933,0.02751966297269102524
13,13_2,89,42,,,,60.97560975609756894755,123.00000000000000000000,0.94796908429489046277,5.00000000000000000000,0.83169577332225019806,29.00000000000000000000,0.73982975807780460009,17.00000000000000000000,0.65439401364308547038,12.00000000000000000000,0.75567853424984265942,10.00000000000000000000,1.56250000000000000000,0.62500000000000000000,0.62499999999999977796,0.62500000000000011102,1.56250000000000044409,1.09375000000000000000,1.87500000000000000000,2.03124999999999911182,1.56250000000000044409,0.93750000000000022204,0.46874999999999961142,0.46875000000000011102,0.31250000000000005551,0.31250000000000005551,0.93750000000000022204,16.00000000000000000000,0.00000000000000000000,0.31250000000000000000,1.24999999999999955591,1.25000000000000022204,2.18750000000000044409,0.78125000000000000000,0.78125000000000000000,2.18749999999999911182,3.59375000000000088818,2.65625000000000044409,0.00000000000000000000,0.00000000000000000000,0.00000000000000000000,0.00000000000000000000,0.00000000000000000000,7.00000000000000000000,1.87500000000000000000,0.62500000000000000000,0.62499999999999977796,0.62500000000000011102,1.25000000000000022204,0.00000000000000000000,2.03125000000000000000,2.18749999999999911182,2.81250000000000044409,2.18750000000000044409,0.78124999999999933387,0.00000000000000000000,0.00000000000000000000,0.00000000000000000000,0.00000000000000000000,3.00000000000000000000,1.25000000000000000000,0.93750000000000000000,0.62499999999999977796,1.25000000000000022204,0.93750000000000022204,0.00000000000000000000,0.00000000000000000000,0.00000000000000000000,0.00000000000000000000,0.62500000000000011102,4.53124999999999555911,3.28125000000000088818,1.25000000000000022204,0.31250000000000005551,0.00000000000000000000,1.00000000000000000000,1.25000000000000000000,2.50000000000000000000,1.24999999999999955591,0.00000000000000000000,0.00000000000000000000,0.00000000000000000000,0.31250000000000000000,2.34374999999999911182,3.12500000000000088818,1.71875000000000044409,0.78124999999999933387,0.46875000000000011102,0.62500000000000011102,0.00000000000000000000,0.62500000000000011102,79.00000000000000000000,-0.00918724096674931184,-0.06955419115991534618,-0.22120681348858503568,-0.32791110246867782863,-0.32723045537197498200,-0.24092021345729139337,-0.02785346234685233749,-0.02313925344473786658,0.05749307191395974792,0.19726754572746632577,0.29765511062149085930,0.37516479164602545282,0.41927498612289076929,0.46031417162362603390,0.47403072519700267806,0.51405448485611471288,0.52991039169414932974,0.55007971578479286645,0.56290921037292707130,0.62110730396759716854,0.63692768309915270830,0.68435255148072648979,0.70103653330099524599,0.77361604050195076354,0.82898111086491688138,0.17838838203184537168,0.95999999999999996447,0.19200000000000000400,0.76800000000000001599,0.07999999999999998779,0.07544087853835476642,0.28400000000000003020,-0.03314872101141752569,0.51200000000000001066,0.28780152833470329377,-0.00501601279471532158,0.32000000000000000666,0.44800000000000000933,3.60818390366774144340,0.20000000000000001110,0.80000000000000004441,0.08313043478260870311,0.29582608695652173880,0.53217391304347827496,0.33217391304347826386,0.46782608695652172504,0.11999999999999999556,0.12521739130434783593,0.39200000000000001510,0.41182608695652178632,0.51200000000000001066,0.53704347826086962225,3.26666666666666660745,0.09600000000000000200,0.10017391304347825209,0.17599999999999998979,0.18399999999999999689,0.27200000000000001954,0.28417391304347827674,1.83333333333333348136,0.07199999999999999456,0.07513043478260869601,0.09600000000000000200,0.10017391304347825209,0.16800000000000001044,0.17530434782608694810,1.33333333333333325932,0.79544197823248130597,9.78362444523517815753,22.66706644304348827745,8.11844769576927660637,10.57906642346765835327,30.78551413881276488382,0.07524084532745517473,0.92475915467254488078,0.74038669536800560955,0.25961330463199444596,0.25618767413566984059,0.74381232586433010390,0.79225955510524603831,0.42890434930278720227,0.01122475119805997623,-0.00832096378440627671,-0.00213641072965009560,-0.00358481951785538655,0.00340636824184914477,0.15896492320649313612,0.83734460239380203994,0.90401683006167354861,0.85726115034971073214,0.53896414022392924448,-0.74086744988059516359,-0.19055510939368358603,-0.31911560599702959440,0.30352455943804146354,6.75623937168185673130,7.57624859808157324892,7.30003295118051376278,4.64810432428978259622,0.03600000000000000422,0.08399999999999999134,0.10799999999999999878,0.01600000000000000033,0.08799999999999999489,0.03669565217391304590,0.08782608695652174835,0.11286956521739130443,0.01634782608695652117,0.09182608695652173803,0.15599999999999999978,0.07200000000000000844,0.03600000000000000422,0.05200000000000000455,0.14000000000000001332,0.16330434782608693745,0.07547826086956521685,0.03739130434782608758,0.05373913043478260876,0.14556521739130434678,-0.53472129392792344671,-0.00461798744446490200,-0.23119673448988198317,0.02052750122167416869
15,15_1,124,85,,,,85.71428571428572240620,87.50000000000000000000,0.94109969239776369854,79.00000000000000000000,0.88072452545460266915,30.00000000000000000000,0.85297906028748537999,19.00000000000000000000,0.83118135884385568879,12.00000000000000000000,0.70032560197488391562,10.00000000000000000000,2.14285714285714279370,0.71428571428571430157,0.47619047619047599751,0.71428571428571441260,0.95238095238095255013,0.00000000000000000000,0.33898305084745761206,3.38983050847457523247,3.22033898305084775870,0.67796610169491533515,0.50847457627118597401,0.33898305084745766758,0.33898305084745766758,0.50847457627118652912,0.67796610169491533515,21.00000000000000000000,0.00000000000000000000,0.71428571428571430157,1.19047619047619024357,1.66666666666666696273,1.42857142857142882519,1.52542372881355925429,0.84745762711864403016,0.67796610169491500208,6.77966101694915490583,0.16949152542372883379,0.00000000000000000000,0.00000000000000000000,0.00000000000000000000,0.00000000000000000000,0.00000000000000000000,14.00000000000000000000,0.71428571428571430157,0.47619047619047616404,0.47619047619047599751,2.38095238095238181941,0.95238095238095255013,0.33898305084745761206,0.33898305084745761206,0.16949152542372875052,0.16949152542372883379,0.50847457627118652912,3.89830508474575943012,3.55932203389830625895,1.01694915254237305824,0.00000000000000000000,0.00000000000000000000,8.00000000000000000000,0.95238095238095232808,1.19047619047619046562,1.90476190476190399004,0.95238095238095255013,0.00000000000000000000,0.00000000000000000000,0.00000000000000000000,0.00000000000000000000,0.00000000000000000000,0.50847457627118652912,1.86440677966101531204,3.05084745762711895267,2.88135593220339014664,1.69491525423728872646,0.00000000000000000000,79.00000000000000000000,0.23809523809523808202,3.33333333333333348136,1.19047619047619024357,0.23809523809523813753,0.00000000000000000000,0.00000000000000000000,0.00000000000000000000,0.16949152542372875052,1.86440677966101753249,2.54237288135593253458,1.86440677966101531204,1.35593220338983067030,1.52542372881355947634,0.67796610169491533515,0.00000000000000000000,74.00000000000000000000,0.01778285150445325577,-0.00724378408675532479,-0.06377738721150934265,-0.14286900884227701769,-0.17587259271982152997,-0.11497780373396557230,0.00189780348912675103,0.04822972245422846305,0.15212180227471572280,0.26755453227100001179,0.38606172896047452614,0.46599655948607343614,0.49893713880250090131,0.52067632107834072031,0.51100962722283360673,0.50762619356079974331,0.50211737160999181384,0.53123373188276423740,0.55056664503131291788,0.57907614771541027210,0.61171614892431014354,0.63047317478662334711,0.64066248072174214467,0.63919315358780071090,0.65500555028215967646,0.14977619076405684906,0.70399999999999995914,0.18399999999999999689,0.52000000000000001776,0.11199999999999998845,0.08016811352691433079,0.26000000000000000888,-0.04040465106287921548,0.35599999999999998312,0.35367807266834416779,-0.00059968091903811471,0.17199999999999998623,0.34799999999999997602,2.76726798189141343087,0.25942842228892082357,0.74057157771107928745,0.15490016964635261454,0.37028578885553964373,0.50691635129844714314,0.24748792900952629181,0.49308364870155291237,0.09600000000000000200,0.13780503719170039689,0.28800000000000003375,0.40871721257992954524,0.38400000000000000799,0.54652224977162988662,3.00000000000000000000,0.06800000000000000488,0.09819913871851754239,0.11999999999999999556,0.17108182174083258476,0.18800000000000000044,0.26928096045935012715,1.77777777777777767909,0.04399999999999999745,0.06374787942059245704,0.06800000000000000488,0.09702466396972464491,0.11200000000000000233,0.16077254339031710195,1.56666666666666665186,1.65495350250746864340,6.08328551652668814143,13.44546030186119089933,7.74462349123966209419,7.73823901903415745096,21.19008379310085388170,0.21382163292841727120,0.78617836707158272880,0.64997931833144650948,0.35002068166855343501,0.27319931843462330612,0.72680068156537669388,0.71845862266973048449,0.44136406507189379633,0.00772847272335796046,-0.01510751555743367058,-0.00309769461096032206,-0.00481851342025912954,0.00934867369034661500,0.11231378270600084202,0.90347778393464750479,0.84399453737596841219,0.79272135640883978347,0.35485159670798199771,-3.57199327004591582480,-0.24357711765312745067,-0.71990923963442854383,2.17660717942468107111,127.74037664716777840113,115.86718334152281784100,105.69322094911409237739,59.24030703518781137973,0.01600000000000000033,0.13200000000000000622,0.05999999999999999778,0.01200000000000000025,0.11599999999999999201,0.02531645569620253125,0.18302231502022706100,0.08319196137283048353,0.01663839227456609740,0.17062508156074643328,0.16799999999999998268,0.03600000000000000422,0.02400000000000000050,0.03600000000000000422,0.15199999999999999623,0.23411196659271826803,0.05108965157249119315,0.03210230980033929038,0.04874070207490538431,0.21936578363565184535,-4.78511409218304084590,-0.00787607637751466805,-2.60850691275835977478,0.03970559567261889439
15,15_3,124,85,,,,98.68421052631578049841,76.00000000000000000000,0.94373702428399952602,0.00000000000000000000,0.90302794032438737926,34.00000000000000000000,0.86149474976772444368,20.00000000000000000000,0.78692652221575942750,13.00000000000000000000,0.75473072752033154575,9.00000000000000000000,1.87500000000000000000,0.83333333333333337034,0.62499999999999977796,0.62500000000000011102,1.04166666666666696273,0.71428571428571430157,1.78571428571428580945,3.74999999999999911182,0.53571428571428580945,0.53571428571428580945,0.35714285714285681772,0.53571428571428580945,0.53571428571428580945,0.53571428571428580945,0.71428571428571441260,24.00000000000000000000,0.00000000000000000000,0.41666666666666668517,1.66666666666666607455,1.45833333333333370341,1.45833333333333370341,2.50000000000000000000,0.89285714285714290472,4.28571428571428381105,2.32142857142857206298,0.00000000000000000000,0.00000000000000000000,0.00000000000000000000,0.00000000000000000000,0.00000000000000000000,0.00000000000000000000,16.00000000000000000000,0.83333333333333337034,0.41666666666666668517,0.41666666666666651864,3.12500000000000044409,0.20833333333333337034,0.17857142857142857539,0.35714285714285715079,0.17857142857142851988,0.35714285714285720630,2.67857142857142926928,3.57142857142856851027,1.60714285714285742834,1.07142857142857161890,0.00000000000000000000,0.00000000000000000000,7.00000000000000000000,0.62500000000000000000,1.04166666666666674068,1.45833333333333281523,1.87500000000000022204,0.00000000000000000000,0.00000000000000000000,0.00000000000000000000,0.00000000000000000000,0.00000000000000000000,1.07142857142857161890,3.03571428571428336696,2.85714285714285765039,1.96428571428571485669,0.53571428571428580945,0.53571428571428580945,28.00000000000000000000,0.00000000000000000000,1.04166666666666674068,2.49999999999999911182,0.83333333333333348136,0.62500000000000011102,0.00000000000000000000,0.00000000000000000000,0.00000000000000000000,0.35714285714285720630,3.21428571428571485669,2.32142857142856939845,1.96428571428571485669,1.96428571428571485669,0.17857142857142860315,0.00000000000000000000,22.00000000000000000000,0.03724156310704530848,0.01443663217852508840,-0.03383197014380939088,-0.10303671234007265312,-0.13454026061448309814,-0.08601156349802430157,-0.00095089313167539104,0.01498092692398264765,0.08944454932713419293,0.16924752620539179615,0.26701619628731038114,0.37488948876053707071,0.47963955674299585397,0.56805114567351311372,0.62545321776425855109,0.63004359593847747423,0.63466499406529841565,0.62469387405803400437,0.63403265264154395897,0.63720460944684154114,0.66168863157570467770,0.69021899817682974554,0.71059941511927560143,0.73915427946415135363,0.82218823702810661658,0.24760965167029397316,0.56799999999999994937,0.13600000000000000977,0.43199999999999999512,0.07199999999999999456,0.04103870384268248905,0.17599999999999998979,-0.01967498251672905596,0.32000000000000000666,0.37371273359139972614,-0.00296688809230966077,0.18399999999999999689,0.24799999999999999822,1.96649294525457984939,0.23943661971830984547,0.76056338028169012677,0.12676056338028168780,0.30985915492957744055,0.56338028169014087165,0.32394366197183099843,0.43661971830985912835,0.13600000000000000977,0.23943661971830984547,0.42399999999999998801,0.74647887323943662441,0.56000000000000005329,0.98591549295774649764,3.11764705882352943789,0.09600000000000000200,0.16901408450704225039,0.42399999999999998801,0.74647887323943662441,0.52000000000000001776,0.91549295774647887480,4.41666666666666696273,0.05600000000000000117,0.09859154929577464144,0.08799999999999999489,0.15492957746478872028,0.14399999999999998912,0.25352112676056337559,1.57142857142857139685,0.38286023662601498252,2.22286581228433144375,5.48687559249357814650,2.31948586646001153611,2.60572604891034664831,7.80636145895358968261,0.14693034856297274016,0.85306965143702717658,0.70287234601471693107,0.29712765398528306893,0.25025971467703472806,0.74974028532296521643,0.89803129064171882678,0.41911600392219655609,0.00766022739986110812,-0.00802129832360543027,-0.00397446885479968426,-0.00436233163832344673,0.00431991197545245065,0.37214780249656170819,0.72808056060365367035,0.71935551880869730290,0.70526888853602531793,0.37371273359139972614,-1.04713579700660952554,-0.51884476104087295933,-0.56947808604252958542,0.56394043544069949458,1.95642848276762415516,1.93298338451251083825,1.89513113823248047218,1.00420513324098559238,0.02400000000000000050,0.08799999999999999489,0.03200000000000000067,0.00800000000000000017,0.15199999999999999623,0.04225352112676056260,0.15492957746478872028,0.05633802816901408578,0.01408450704225352144,0.26760563380281687795,0.11200000000000000233,0.02400000000000000050,0.00800000000000000017,0.01600000000000000033,0.16800000000000001044,0.19718309859154928287,0.04225352112676056260,0.01408450704225352144,0.02816901408450704289,0.29577464788732393819,-0.52275338536390658639,-0.00571596281936983565,0.04118705007679292207,0.00644369305532086628
15,15_2,124,85,,,,92.59259259259259522423,81.00000000000000000000,0.96263120131668988844,0.00000000000000000000,0.90722804397334189108,31.00000000000000000000,0.89070642221210294398,17.00000000000000000000,0.83332282687397152277,12.00000000000000000000,0.66292466940658556496,7.00000000000000000000,1.75000000000000000000,0.75000000000000000000,0.49999999999999983347,0.50000000000000011102,1.50000000000000044409,1.50000000000000000000,1.16666666666666674068,1.33333333333333281523,1.16666666666666696273,1.83333333333333370341,0.66666666666666607455,0.50000000000000011102,0.33333333333333337034,0.50000000000000011102,1.00000000000000022204,20.00000000000000000000,0.00000000000000000000,0.75000000000000000000,0.99999999999999966693,1.00000000000000022204,2.25000000000000044409,1.83333333333333325932,0.83333333333333337034,6.16666666666666518637,1.16666666666666696273,0.00000000000000000000,0.00000000000000000000,0.00000000000000000000,0.00000000000000000000,0.00000000000000000000,0.00000000000000000000,11.00000000000000000000,1.50000000000000000000,0.25000000000000000000,0.49999999999999983347,0.75000000000000022204,2.00000000000000044409,0.16666666666666665741,0.33333333333333331483,0.33333333333333320381,0.50000000000000011102,3.83333333333333436954,3.16666666666666385410,1.50000000000000022204,0.16666666666666668517,0.00000000000000000000,0.00000000000000000000,6.00000000000000000000,1.25000000000000000000,0.75000000000000000000,0.74999999999999977796,1.75000000000000044409,0.50000000000000011102,0.00000000000000000000,0.00000000000000000000,0.00000000000000000000,0.00000000000000000000,0.66666666666666674068,1.16666666666666563046,4.16666666666666785090,2.66666666666666696273,1.16666666666666696273,0.16666666666666668517,79.00000000000000000000,1.25000000000000000000,1.25000000000000000000,1.49999999999999955591,1.00000000000000022204,0.00000000000000000000,0.00000000000000000000,0.00000000000000000000,0.83333333333333314830,1.50000000000000022204,2.83333333333333392545,2.83333333333333081683,0.83333333333333359239,0.83333333333333359239,0.33333333333333337034,0.00000000000000000000,79.00000000000000000000,-0.00610285215081711463,-0.05917406654515791620,-0.14110797748550982234,-0.23068893817127991697,-0.22106681536129663135,-0.12240367124534884402,-0.01013559475798791326,-0.00041984265882611359,0.05196549866026543840,0.14237974670064110216,0.24701546460473822187,0.33268557927861747148,0.38091099674447714829,0.38836640303184188916,0.39142197799692479698,0.40955275771587951184,0.44360495199726823756,0.49780732409440386910,0.55889104191822402967,0.60507727689886348088,0.65365249684936665986,0.70963006207618639642,0.77572143246694380547,0.84605538352966092042,0.89403844612200278341,0.27709973830535605810,0.69199999999999994849,0.16799999999999998268,0.52400000000000002132,0.08399999999999999134,0.08425523923873609600,0.24399999999999999467,-0.03729570354256889209,0.36399999999999999023,0.43985491549919342180,-0.00187911362237111468,0.19600000000000000755,0.32799999999999995826,2.29216043095929089546,0.24270414993306560492,0.75729585006693445060,0.12088353413654617796,0.35200803212851405899,0.52663989290495316631,0.28393574297188756139,0.47336010709504683369,0.10000000000000000555,0.14497991967871487473,0.33199999999999996181,0.48172690763052211649,0.43199999999999999512,0.62670682730923688020,3.31730769230769251266,0.07599999999999999811,0.11024096385542168919,0.17999999999999999334,0.26311914323962515283,0.25600000000000000533,0.37336010709504685590,2.34444444444444410891,0.05200000000000000455,0.07550200803212850365,0.08399999999999999134,0.12182061579651941308,0.13600000000000000977,0.19732262382864793060,1.61904761904761906877,1.01738383384967501222,7.13089728755535734450,16.40668232433018403071,8.77925018294012105002,8.14828112140503257876,25.18593250727030863345,0.12557227655509903275,0.87442772344490093950,0.65073824918883693691,0.34926175081116295207,0.24452666841040743284,0.75547333158959251165,0.46318303307258518187,0.48986549218578578913,0.01233691786939032295,-0.01093347881270445576,-0.00609741790030926545,-0.00691670788705106565,0.00573503077421486096,0.15989547705321049964,0.90490824053064389254,0.97019859307796352255,0.94353304768219681264,0.50132504447303327666,-0.88706905254743961819,-0.49254929467123864661,-0.55892151953148760946,0.46440394911902183051,6.26559976147711594763,6.69471498975914425245,6.48126583293555746934,3.21310261110189721023,0.03600000000000000422,0.08799999999999999489,0.04000000000000000083,0.01600000000000000033,0.11999999999999999556,0.05187416331994645219,0.12690763052208836603,0.05789825970548861944,0.02315930388219544778,0.17275769745649263709,0.13200000000000000622,0.04399999999999999745,-0.00400000000000000008,0.01200000000000000025,0.13200000000000000622,0.19082998661311914579,0.06392235609103077976,-0.00602409638554216899,0.01713520749665328052,0.18989290495314592455,-0.30000218746373524814,-0.00828093312591936075,0.16440176165528652685,0.00201815023514080073
24,24_2,114,65,,,,79.36507936507936733506,94.50000000000000000000,0.98158715190229184344,0.00000000000000000000,0.85110545191187614300,32.00000000000000000000,0.81886465811545028348,14.00000000000000000000,0.84548232518025256965,10.00000000000000000000,0.66516395554061391593,8.00000000000000000000,1.57894736842105265495,0.52631578947368418131,0.52631578947368407029,0.52631578947368429233,1.84210526315789513419,1.80327868852459016757,1.63934426229508201089,1.31147540983606503140,0.98360655737704938417,0.98360655737704938417,0.65573770491803218263,0.49180327868852469209,0.32786885245901642438,0.49180327868852469209,1.31147540983606569753,19.00000000000000000000,0.00000000000000000000,1.31578947368421061981,1.05263157894736814058,0.78947368421052654952,1.84210526315789513419,1.63934426229508201089,1.31147540983606547549,7.04918032786885007113,0.00000000000000000000,0.00000000000000000000,0.00000000000000000000,0.00000000000000000000,0.00000000000000000000,0.00000000000000000000,0.00000000000000000000,9.00000000000000000000,1.84210526315789469010,0.52631578947368418131,0.26315789473684203514,0.78947368421052654952,1.57894736842105309904,0.00000000000000000000,0.00000000000000000000,0.16393442622950812892,1.63934426229508245498,6.22950819672131217430,1.96721311475409676994,0.00000000000000000000,0.00000000000000000000,0.00000000000000000000,0.00000000000000000000,6.00000000000000000000,1.05263157894736836262,0.26315789473684209065,0.52631578947368407029,0.78947368421052654952,2.36842105263157920447,0.00000000000000000000,0.00000000000000000000,0.00000000000000000000,0.00000000000000000000,0.00000000000000000000,0.00000000000000000000,6.22950819672131217430,2.95081967213114815252,0.81967213114754122749,0.00000000000000000000,2.00000000000000000000,0.52631578947368418131,0.26315789473684209065,1.57894736842105198882,1.05263157894736858466,1.57894736842105309904,0.00000000000000000000,0.00000000000000000000,0.00000000000000000000,0.00000000000000000000,3.11475409836065608715,5.08196721311474952643,1.80327868852459061166,0.00000000000000000000,0.00000000000000000000,0.00000000000000000000,14.00000000000000000000,-0.00403743689021172046,-0.06867620468183011084,-0.19150050067883678251,-0.29230706903539743768,-0.25937945653656357958,-0.13804717560077822691,-0.01280844557597954694,-0.03098401077011039839,-0.00621554935115673987,0.08216395550327267039,0.18629241603472002087,0.28058326919043469205,0.34005989029127492440,0.38912238818655831007,0.43597314127220204716,0.49197999083708110479,0.54537424744396889587,0.60299199224758015525,0.65082842817558939075,0.69786330132854068609,0.74147375849452534791,0.78579037076159430342,0.81804459117552896785,0.85633719091627491515,0.89469477733931945806,0.20848953184913010528,0.76800000000000001599,0.17999999999999999334,0.58799999999999996714,0.07200000000000000844,0.08935788216787948768,0.27600000000000002309,-0.03390783373810796197,0.41600000000000003642,0.42462408074541913017,-0.01065338068204407795,0.23600000000000001532,0.35199999999999997957,2.39275666023822619621,0.23436821537125490655,0.76563178462874503794,0.09357359965262701529,0.35963960052105947707,0.54081632653061229021,0.30644811115935732815,0.45918367346938776530,0.11999999999999999556,0.15631784628745115651,0.34399999999999997247,0.44811115935735995608,0.46400000000000002354,0.60442900564481116810,2.86666666666666669627,0.09600000000000000200,0.12505427702996091410,0.19200000000000000400,0.24989144594007817179,0.28800000000000003375,0.37494572297003903039,2.00000000000000000000,0.07199999999999999456,0.09379070777247069945,0.10799999999999999878,0.14057750759878417934,0.17999999999999999334,0.23436821537125490655,1.50000000000000000000,0.90941118026331102531,9.98497516940487983561,20.55236125369524913253,7.92578359556245271023,10.89438634966818852945,28.47814484925770273094,0.08334422047923555066,0.91665577952076449098,0.71866376855919944511,0.28133623144080055489,0.27735460234106212862,0.72264539765893776035,0.44701812469051926957,0.56128780200434813530,0.01471455273123734031,-0.01112594030656899324,-0.00147780131339003695,-0.00514111910773851211,0.00298036984167288077,0.25743904859178001754,0.92219629579412798481,0.97094614948283508582,0.88856214096838903593,0.54766829889575263657,-0.75614870421500524067,-0.10043791070351104633,-0.34938196705225588179,0.20254091255637518554,3.69591929853268164052,3.92828083354344625988,3.55893008435840663140,2.24099249863036309449,0.04000000000000000083,0.07599999999999999811,0.08799999999999999489,0.03600000000000000422,0.09600000000000000200,0.05210594876248371421,0.09910985670864090602,0.11463308727746418514,0.04635258358662613931,0.12570560138949196660,0.14000000000000001332,0.06400000000000000133,0.02400000000000000050,0.05999999999999999778,0.15599999999999999978,0.18226226660877117847,0.08315240990013025857,0.03148067737733391269,0.07783326096396005200,0.20353886235345203248,-0.50886973901561338707,-0.00395442500304663165,-0.30632882645923825704,0.01561047114848933270
24,24_3,114,65,,,,78.12500000000000000000,96.00000000000000000000,0.98084384731060247908,1.00000000000000000000,0.85645020302058316730,31.00000000000000000000,0.81385164464366732684,14.00000000000000000000,0.78470280916639856272,11.00000000000000000000,0.55263397360463883956,8.00000000000000000000,1.66666666666666674068,0.71428571428571430157,0.47619047619047599751,0.47619047619047627506,1.66666666666666696273,1.35593220338983044826,2.03389830508474567239,1.18644067796610119814,1.01694915254237305824,1.18644067796610186427,0.67796610169491466902,0.50847457627118652912,0.33898305084745766758,0.33898305084745766758,1.35593220338983067030,21.00000000000000000000,0.00000000000000000000,0.95238095238095232808,1.42857142857142815906,1.19047619047619090971,1.42857142857142882519,1.52542372881355925429,1.01694915254237283619,7.28813559322033643895,0.16949152542372883379,0.00000000000000000000,0.00000000000000000000,0.00000000000000000000,0.00000000000000000000,0.00000000000000000000,0.00000000000000000000,10.00000000000000000000,1.66666666666666674068,0.47619047619047616404,0.47619047619047599751,1.19047619047619090971,1.19047619047619090971,0.00000000000000000000,0.00000000000000000000,1.18644067796610119814,1.52542372881355947634,5.59322033898305193134,1.35593220338982933804,0.33898305084745766758,0.00000000000000000000,0.00000000000000000000,0.00000000000000000000,6.00000000000000000000,0.71428571428571430157,0.47619047619047616404,0.71428571428571407953,1.19047619047619090971,1.90476190476190510026,0.00000000000000000000,0.00000000000000000000,0.00000000000000000000,0.00000000000000000000,0.00000000000000000000,0.50847457627118597401,4.40677966101694984502,4.06779661016949223296,0.84745762711864436323,0.16949152542372883379,32.00000000000000000000,0.47619047619047616404,0.95238095238095232808,2.38095238095238048714,0.47619047619047627506,0.71428571428571441260,0.00000000000000000000,0.00000000000000000000,0.00000000000000000000,0.50847457627118652912,3.89830508474576387101,4.57627118644067376607,0.84745762711864436323,0.16949152542372883379,0.00000000000000000000,0.00000000000000000000,14.00000000000000000000,0.01282529111776299809,-0.03160478203052936169,-0.13603273851799591032,-0.25013610501945954256,-0.22951736178591308768,-0.11692023539866468196,-0.01186459939428608466,-0.03386288077174593597,-0.00497802925518673473,0.07463239562743907707,0.19743341887297516379,0.28928862659141740821,0.35344494058068143261,0.39035725311509805735,0.41983727431372241945,0.46160724652967100035,0.52498527880642786858,0.59452364007036195837,0.64977383764430607371,0.69165727070361193718,0.74246242771832782203,0.77348155379453098490,0.80092844285017372741,0.82685251340485299565,0.88139532648233798184,0.19470165309592368796,0.77200000000000001954,0.19200000000000000400,0.57999999999999996003,0.08799999999999999489,0.08239152963941823171,0.28800000000000003375,-0.03599495451664014301,0.41199999999999997735,0.41337048824655808765,-0.00716180507132957445,0.22000000000000000111,0.35999999999999998668,2.26352183505128223828,0.24860305179454117441,0.75139694820545888110,0.11379754996776272891,0.37303889963464431645,0.53390285837094353383,0.28529980657640230390,0.46609714162905652168,0.11999999999999999556,0.15554480980012896918,0.33200000000000001732,0.43020631850419088771,0.45200000000000001288,0.58575112830431974587,2.76666666666666660745,0.09600000000000000200,0.12443584784010315591,0.17999999999999999334,0.23318289275736084343,0.27600000000000002309,0.35761874059746401322,1.87500000000000000000,0.06800000000000000488,0.08827638082957231513,0.10399999999999999523,0.13480550182677841775,0.17199999999999998623,0.22308188265635076064,1.53472222222222232091,0.96603828243688183441,9.13949289100167128197,18.61230125959557213378,8.31365759323222164312,10.10553117343855333843,26.92595885282779377690,0.09550436557472913313,0.90449563442527081136,0.69210013974032780215,0.30789986025967219785,0.27311418936941705971,0.72688581063058288478,0.45795935250533847949,0.55178780269209481979,0.01258468494607938720,-0.01071459365538041109,-0.00164350034332511052,-0.00570651515951181576,0.00488652956319407528,0.25967363276269783690,0.73830297668263611399,0.92035175538462810074,0.79497500620703043239,0.55209080986626291043,-0.85229929270657689422,-0.13062780024113901378,-0.45400072085029569147,0.38882069843173749923,2.84801645346420606586,3.56681861937289390596,3.08032865418296797344,2.14516817282825744684,0.05600000000000000117,0.05200000000000000455,0.10000000000000000555,0.05600000000000000117,0.05999999999999999778,0.07231893402106168156,0.06753707285622179146,0.12948635289060822506,0.07258757790672684673,0.07790672684289705330,0.13600000000000000977,0.08399999999999999134,0.01600000000000000033,0.07199999999999999456,0.13200000000000000622,0.17628411777347946510,0.10874704491725767364,0.02073930797335052714,0.09332688588007737041,0.17123361272297443758,-0.65649147004687968820,-0.00436555503513139358,-0.26767077161514218897,0.02489679732580590138
24,24_1,114,65,,,,89.28571428571429180465,84.00000000000000000000,0.95465465405084892758,1.00000000000000000000,0.88495375642656914916,29.00000000000000000000,0.85146422488763007230,18.00000000000000000000,0.88456898824766116984,12.00000000000000000000,0.75315593268278058225,8.00000000000000000000,1.84210526315789469010,0.52631578947368418131,0.52631578947368407029,0.78947368421052654952,1.31578947368421084185,1.47540983606557385421,1.14754098360655731881,0.98360655737704882906,1.31147540983606569753,2.13114754098360714707,0.65573770491803218263,0.49180327868852469209,0.49180327868852469209,0.49180327868852469209,0.81967213114754122749,19.00000000000000000000,0.00000000000000000000,0.78947368421052632748,1.05263157894736814058,1.05263157894736858466,2.10526315789473716933,1.80327868852459016757,3.44262295081967195642,3.93442622950819531624,0.81967213114754122749,0.00000000000000000000,0.00000000000000000000,0.00000000000000000000,0.00000000000000000000,0.00000000000000000000,0.00000000000000000000,11.00000000000000000000,1.57894736842105265495,0.26315789473684209065,0.26315789473684203514,1.31578947368421084185,1.57894736842105309904,0.32786885245901636887,0.16393442622950818444,0.32786885245901625785,0.32786885245901642438,5.24590163934426279013,2.29508196721311286126,1.31147540983606569753,0.00000000000000000000,0.00000000000000000000,0.00000000000000000000,6.00000000000000000000,1.31578947368421061981,0.78947368421052632748,0.52631578947368407029,1.05263157894736858466,1.31578947368421084185,0.00000000000000000000,0.00000000000000000000,0.00000000000000000000,0.00000000000000000000,0.00000000000000000000,1.47540983606557229990,5.24590163934426279013,1.80327868852459061166,1.47540983606557407626,0.00000000000000000000,0.00000000000000000000,0.52631578947368418131,1.05263157894736836262,1.57894736842105198882,0.78947368421052654952,1.05263157894736858466,0.00000000000000000000,0.00000000000000000000,0.00000000000000000000,0.00000000000000000000,3.60655737704918122333,4.59016393442622572252,0.98360655737704938417,0.81967213114754122749,0.00000000000000000000,0.00000000000000000000,15.00000000000000000000,-0.00511445969749663165,-0.04022774054979900288,-0.13315676333579212764,-0.21853570386909015877,-0.23881339479635882439,-0.15530745768680789820,-0.01520843008948614093,-0.00270687584805572382,0.05780373005761188510,0.15368210650122865468,0.24209738552213039275,0.32167282447241352106,0.35862827831287336089,0.37904072322831239283,0.37277213386190066746,0.38026930331511210603,0.39348627619137610534,0.44477408610592250593,0.48931798866088138666,0.56222537785442394664,0.62243409197124632826,0.70031262474443145560,0.75804516483783701553,0.84016977443643936496,0.90412880356130576054,0.30872499561442612315,0.69999999999999995559,0.16399999999999997913,0.53600000000000003197,0.08399999999999999134,0.08492791194040533176,0.22800000000000000822,-0.03358143104797900458,0.40000000000000002220,0.41517746629731649977,-0.00233826974687539879,0.23599999999999998757,0.30000000000000004441,2.32938056850204189274,0.23402304871660556396,0.76597695128339449155,0.11943425877422733650,0.32628339444735465769,0.57176532215819797500,0.33774227344159246655,0.42823467784180202500,0.09600000000000000200,0.13750654793085384520,0.36799999999999999378,0.52651911995809319578,0.46399999999999996803,0.66402566788894712424,3.83333333333333303727,0.07199999999999999456,0.10312991094814039084,0.15599999999999999978,0.22256416972236772733,0.22799999999999998046,0.32569408067050809041,2.16666666666666696273,0.04800000000000000100,0.06875327396542692260,0.07599999999999999811,0.10856469355683603939,0.12399999999999999911,0.17731796752226297587,1.58333333333333348136,1.10824487429201878896,6.82679126039415429261,17.98108995205416604790,7.56383157520129500995,7.93503613468617263749,25.54492152725546105785,0.13984924068206927572,0.86015075931793072428,0.70383271601240271487,0.29616728398759717411,0.23692954661319506893,0.76307045338680490332,0.42904734779298081548,0.47784932842632815708,0.01354691356789216455,-0.01148615219184839775,0.00015808215950818827,-0.00135961076421092786,0.00385283044348602721,0.19447871950058426282,0.88193364699147303032,0.75196645242350856897,0.68734643767679926007,0.51616534749219722400,-0.84884455439659856069,0.01269935167236955695,-0.09635671337557122351,0.28400204165090847663,4.72578942851544603343,4.06743714835331715562,3.71529198602442800592,2.78680397847563066094,0.04000000000000000083,0.07599999999999999811,0.10799999999999999878,0.01600000000000000033,0.05200000000000000455,0.05611576741749607633,0.10915400733368255115,0.15381089575694079086,0.02291775798847564202,0.07418805657412258503,0.12399999999999999911,0.04800000000000000100,0.05999999999999999778,0.07599999999999999811,0.12800000000000000266,0.17790728129910948763,0.06875327396542692260,0.08505762179151388214,0.10797537977998952763,0.18216343635411208490,-1.04918923434430544361,-0.00522899774918334122,-0.76518719269339685596,0.08584800001030758188
26,26_1,125,75,,,,89.28571428571429180465,84.00000000000000000000,0.96507231737441612207,0.00000000000000000000,0.89257222885437281779,33.00000000000000000000,0.86483641732354699094,17.00000000000000000000,0.71568842150412881331,12.00000000000000000000,0.72041013130347442139,7.00000000000000000000,2.00000000000000000000,0.50000000000000000000,0.74999999999999977796,0.50000000000000011102,1.25000000000000044409,1.83333333333333325932,2.00000000000000000000,0.99999999999999966693,1.66666666666666718477,0.66666666666666674068,0.49999999999999961142,0.50000000000000011102,0.33333333333333337034,0.50000000000000011102,1.00000000000000022204,20.00000000000000000000,0.00000000000000000000,0.75000000000000000000,0.99999999999999966693,1.50000000000000044409,1.75000000000000044409,1.00000000000000000000,2.66666666666666651864,4.49999999999999822364,1.66666666666666718477,0.16666666666666668517,0.00000000000000000000,0.00000000000000000000,0.00000000000000000000,0.00000000000000000000,0.00000000000000000000,12.00000000000000000000,1.00000000000000000000,0.50000000000000000000,0.74999999999999977796,1.50000000000000044409,1.25000000000000044409,0.00000000000000000000,0.50000000000000000000,0.33333333333333320381,0.50000000000000011102,4.33333333333333392545,2.99999999999999733546,1.33333333333333348136,0.00000000000000000000,0.00000000000000000000,0.00000000000000000000,7.00000000000000000000,0.75000000000000000000,1.25000000000000000000,0.99999999999999966693,2.00000000000000044409,0.00000000000000000000,0.00000000000000000000,0.00000000000000000000,0.00000000000000000000,0.00000000000000000000,0.66666666666666674068,1.83333333333333170501,5.83333333333333392545,1.50000000000000022204,0.16666666666666668517,0.00000000000000000000,79.00000000000000000000,0.50000000000000000000,1.75000000000000000000,1.74999999999999933387,1.00000000000000022204,0.00000000000000000000,0.00000000000000000000,0.00000000000000000000,0.00000000000000000000,1.50000000000000022204,3.33333333333333436954,3.49999999999999689138,1.50000000000000022204,0.16666666666666668517,0.00000000000000000000,0.00000000000000000000,79.00000000000000000000,0.01245724892487134507,-0.00002166982249583033,-0.06411753600258743302,-0.15328180417478695641,-0.19300278330589468179,-0.12676469768419054707,-0.01306864825276056463,-0.01288905442046796648,0.04054825391599572310,0.12942845352494522504,0.24562053693320445857,0.36636384036991420654,0.44611326817243601717,0.47626689447617831519,0.48156144102986808697,0.50565762243680090204,0.54699454418159287883,0.61398796459960935934,0.67182098659297651011,0.73182092257545683367,0.77352672147626100330,0.79702928441735698684,0.82147512029234759368,0.85757893849410704590,0.90551174229118824854,0.20004585369856794919,0.78800000000000003375,0.18800000000000000044,0.59999999999999997780,0.10400000000000000910,0.07435273100313405381,0.28000000000000002665,-0.03154002132923366952,0.40800000000000002931,0.42534925598251355217,-0.00323666764658389616,0.22000000000000000111,0.38000000000000000444,2.29807195482326687141,0.23824742268041237958,0.76175257731958767593,0.13154639175257731853,0.35525773195876286792,0.51726804123711345174,0.27902061855670101664,0.48273195876288654826,0.11999999999999999556,0.15231958762886599335,0.38800000000000001155,0.49149484536082477248,0.50800000000000000711,0.64381443298969065481,3.23333333333333339255,0.08399999999999999134,0.10670103092783506105,0.16399999999999997913,0.20778350515463916981,0.24799999999999999822,0.31448453608247423086,1.96818181818181825449,0.05999999999999999778,0.07623711340206185127,0.09600000000000000200,0.12170103092783504661,0.15599999999999999978,0.19793814432989692564,1.61607142857142860315,1.59697882767279786265,7.06795488688210582495,16.34670033877149464274,7.42835565787117069192,8.66493371455490368760,23.77505599664266355830,0.17727548250888841563,0.82272451749111163988,0.69311705191395311942,0.30688294808604676955,0.26433827463613090991,0.73566172536386909009,0.66975438239171136701,0.46764992554575479655,0.01037534472750455128,-0.01082357803148814579,-0.00259990400632642560,-0.00325471331104848494,0.00489491256728930013,0.28958981477640122204,0.92008862496921561824,0.93366916199198757287,0.90401420460297443604,0.46664979116403343395,-1.05168152391555169700,-0.25804660383245825450,-0.31805881029873106502,0.46871428336189746577,3.22898674519799877558,3.29556360876464360388,3.19985978433739326476,1.65287242398451073022,0.05599999999999999423,0.08399999999999999134,0.06400000000000000133,0.01200000000000000025,0.13200000000000000622,0.07077319587628866371,0.10654639175257732409,0.08139175257731959268,0.01530927835051546296,0.16716494845360824195,0.13200000000000000622,0.04800000000000000100,0.01600000000000000033,0.02800000000000000058,0.16000000000000000333,0.16747422680412371587,0.06092783505154639179,0.02046391752577319742,0.03577319587628866038,0.20293814432989690233,-0.94429039314626006529,-0.00575645158316625237,-0.47557610978436248850,0.01208881625643211909
26,26_3,125,75,,,,70.75471698113207708047,106.00000000000000000000,0.96749013062920918848,79.00000000000000000000,0.83778228442078273019,31.00000000000000000000,0.78118897181343838199,16.00000000000000000000,0.84404032794795025296,12.00000000000000000000,0.63857081560652151353,9.00000000000000000000,1.38888888888888883955,0.83333333333333337034,0.83333333333333303727,0.55555555555555569125,1.38888888888888928363,0.80645161290322575631,1.29032258064516125451,1.12903225806451557034,1.12903225806451645852,1.45161290322580671663,1.77419354838709519839,0.48387096774193560922,0.32258064516129036914,0.48387096774193560922,1.12903225806451645852,18.00000000000000000000,0.00000000000000000000,1.11111111111111116045,1.38888888888888839546,1.11111111111111138250,1.38888888888888928363,1.29032258064516125451,2.25806451612903247295,5.16129032258064324168,1.29032258064516147655,0.00000000000000000000,0.00000000000000000000,0.00000000000000000000,0.00000000000000000000,0.00000000000000000000,0.00000000000000000000,10.00000000000000000000,1.66666666666666674068,0.27777777777777779011,0.83333333333333303727,0.83333333333333348136,1.38888888888888928363,0.00000000000000000000,0.16129032258064515681,0.48387096774193533166,4.35483870967741992786,3.38709677419354937555,0.64516129032258007214,0.96774193548387121844,0.00000000000000000000,0.00000000000000000000,0.00000000000000000000,6.00000000000000000000,0.55555555555555558023,0.55555555555555558023,0.83333333333333303727,1.66666666666666696273,1.38888888888888928363,0.00000000000000000000,0.00000000000000000000,0.00000000000000000000,0.96774193548387121844,1.61290322580645217876,2.74193548387096530661,2.25806451612903291704,1.12903225806451645852,1.29032258064516147655,0.00000000000000000000,3.00000000000000000000,0.55555555555555558023,0.83333333333333337034,1.38888888888888839546,1.11111111111111138250,1.11111111111111138250,0.00000000000000000000,0.00000000000000000000,0.16129032258064510130,0.00000000000000000000,2.74193548387096841523,3.87096774193548087695,2.74193548387096841523,0.48387096774193560922,0.00000000000000000000,0.00000000000000000000,13.00000000000000000000,-0.00748422349305875433,-0.02014978132698796651,-0.08669507806667520189,-0.18970090277476042706,-0.21390386214191192682,-0.13557765818183450945,-0.01478389636457053818,-0.01119541583941831633,0.03944910360359549922,0.14471553887067695188,0.24609892370896307989,0.29897275268379491786,0.29663039302044080792,0.28713217839002436182,0.29405069810056311264,0.33107465035750627269,0.35886973643445019277,0.39078543694725642599,0.43203142330336286037,0.50563750925820993842,0.57103746539682698202,0.62773147864401712681,0.66368472000279477019,0.72986974909081747676,0.79482412361796128675,0.32336198576848784736,0.93999999999999994671,0.25600000000000000533,0.68399999999999994138,0.15199999999999999623,0.06176352622235214973,0.36399999999999999023,-0.02792170922292069868,0.48799999999999998934,0.57845456583537280260,-0.00103925010360150782,0.23199999999999998401,0.45200000000000001288,1.72421123823905730887,0.26974448315911730978,0.73025551684088263471,0.15926248548199767319,0.38509001161440187255,0.51789343786295005678,0.24814895470383274700,0.48210656213704994322,0.25600000000000000533,0.26974448315911730978,0.59600000000000008527,0.63244047619047616404,0.85199999999999997957,0.90218495934959341831,2.42083333333333339255,0.10799999999999999878,0.11494628339140533502,0.35199999999999997957,0.37249564459930312177,0.46000000000000001998,0.48744192799070851230,3.24450549450549452501,0.07599999999999999811,0.08082897793263646435,0.11599999999999999201,0.12347560975609755962,0.19200000000000000400,0.20430458768873402398,1.52777777777777767909,2.40419733075246444542,8.60556416742193341918,18.49337692971208824133,14.39581141075341363944,11.00976149817439875278,32.88918834046550898620,0.19321063110857744638,0.80678936889142249811,0.55976120740829871103,0.44023879259170128897,0.24943008476499822779,0.75056991523500171670,0.38551979399072899835,0.47143761667107975111,0.00897818185829718507,-0.00774598136671100779,-0.00092056561115338997,-0.00312797533299230546,0.00353029001497440209,0.43706739662861193718,0.89039531177089015213,0.91152241073420992024,0.86318721727582081726,0.62336741606906143076,-0.86470818161468954166,-0.10259265584686724782,-0.34866479365875679974,0.39485289227590231187,2.03720470735794334516,2.09161684934177971584,1.98295741310981177286,1.42795947314408122608,0.11599999999999999201,0.06800000000000000488,0.11200000000000000233,0.02000000000000000042,0.09600000000000000200,0.12068089430894309022,0.07269889663182346751,0.12060830429732868896,0.02152293844367015110,0.09995644599303135647,0.14000000000000001332,0.07200000000000000844,0.03999999999999999389,0.05999999999999999778,0.15599999999999999978,0.14906358885017420568,0.07636469221835075205,0.04424361207897793691,0.06576655052264808454,0.16572299651567945489,-0.80830362438496794475,-0.00353678360491953715,-0.41345073210906568839,0.04071401210875056492
26,26_2,125,75,,,,78.53403141361256700748,95.50000000000000000000,0.95792809711696802477,1.00000000000000000000,0.84778094816659321786,31.00000000000000000000,0.81729995817718492646,17.00000000000000000000,0.83007306588800344738,12.00000000000000000000,0.69083139814750915697,10.00000000000000000000,1.81818181818181812126,0.90909090909090906063,0.68181818181818154567,0.68181818181818198976,0.90909090909090928267,1.03448275862068972408,0.86206896551724132571,1.37931034482758563264,1.89655172413793149389,2.24137931034482829062,0.51724137931034441795,0.34482758620689663021,0.51724137931034497306,0.51724137931034497306,0.68965517241379326041,22.00000000000000000000,0.00000000000000000000,1.13636363636363646457,1.59090909090909016221,2.27272727272727337322,0.00000000000000000000,1.55172413793103447510,2.58620689655172419918,4.13793103448275711997,1.72413793103448331756,0.00000000000000000000,0.00000000000000000000,0.00000000000000000000,0.00000000000000000000,0.00000000000000000000,0.00000000000000000000,15.00000000000000000000,0.68181818181818176772,0.45454545454545453032,2.04545454545454497008,1.81818181818181856535,0.00000000000000000000,0.00000000000000000000,0.17241379310344828735,0.51724137931034464000,3.10344827586206939429,3.96551724137931138614,1.37931034482758496651,0.86206896551724165878,0.00000000000000000000,0.00000000000000000000,0.00000000000000000000,6.00000000000000000000,0.00000000000000000000,0.00000000000000000000,2.49999999999999911182,1.81818181818181856535,0.68181818181818198976,0.00000000000000000000,0.00000000000000000000,0.00000000000000000000,0.00000000000000000000,0.00000000000000000000,0.68965517241379248325,4.82758620689655248981,3.44827586206896663512,1.03448275862068994613,0.00000000000000000000,4.00000000000000000000,0.00000000000000000000,1.59090909090909082835,2.49999999999999911182,0.90909090909090928267,0.00000000000000000000,0.00000000000000000000,0.00000000000000000000,0.00000000000000000000,0.00000000000000000000,2.41379310344827624490,4.65517241379309965055,1.37931034482758652082,1.37931034482758652082,0.17241379310344831510,0.00000000000000000000,79.00000000000000000000,0.02714361145557231750,0.02665503659808349940,-0.01901985862212412365,-0.09746023832278763455,-0.16560246635750486277,-0.13166572949785723678,-0.01357123226566316759,-0.00991359116078708788,0.05200322043291520646,0.14831287256165437416,0.27070743834368737879,0.37670671992488924396,0.41527614675956336932,0.42622616276193364682,0.41251389573769248198,0.41065015653276037977,0.42441426022828804276,0.44828078200134530151,0.46881451448550226502,0.50496708334499851301,0.52626772094696716575,0.58593683308311050872,0.65332338159228520169,0.75666144788408951083,0.88470009472498734038,0.29653270180733637407,0.91600000000000003642,0.29999999999999998890,0.61599999999999999201,0.20800000000000001821,0.06407085774218779228,0.40000000000000002220,-0.02575365045838873268,0.53600000000000003197,0.53768044408699400272,-0.00035750167642484287,0.23599999999999998757,0.38000000000000000444,1.83015847265889419759,0.31375291375291375351,0.68624708624708619098,0.21204351204351204463,0.42556332556332554518,0.57921522921522927696,0.26546231546231546794,0.42078477078477077855,0.21600000000000002531,0.23298368298368299367,0.58799999999999996714,0.65330225330225322189,0.80400000000000004796,0.88628593628593632658,2.85930735930735924200,0.10000000000000000555,0.11060606060606061052,0.29200000000000003730,0.31087801087801092415,0.39200000000000001510,0.42148407148407152079,2.88782051282051277497,0.06800000000000000488,0.07501942501942501784,0.11199999999999998845,0.12334887334887335852,0.17999999999999999334,0.19836829836829839024,1.64583333333333348136,4.87982757969833258471,7.62337845923357715350,17.35727511934031142005,14.75865156524364962820,12.50320603893190885003,32.11592668458396104825,0.31419900078767570850,0.68580099921232440252,0.56878935190003987454,0.43121064809996001443,0.27012481218664713412,0.72987518781335292140,0.50852310477189444082,0.43600788025454007002,0.00734326976899510840,-0.00871247260987445538,-0.00098067475610924548,-0.00234338799124700348,0.00293010002664068070,0.19589194462268499919,0.91504362587177157096,0.90045673213030852367,0.83560595449703822801,0.58410987506036549100,-1.25456680755496829960,-0.13376219418779153325,-0.33065225770898987179,0.42533900189528373037,56.22332976395269099612,54.46108405742461400223,50.40870437539025061824,37.91049925703968170865,0.02000000000000000042,0.22800000000000000822,0.08399999999999999134,0.02800000000000000058,0.08799999999999999489,0.02525252525252525207,0.23006993006993009532,0.09401709401709401615,0.03053613053613053741,0.09906759906759907142,0.28000000000000002665,0.05200000000000000455,0.03200000000000000067,0.05999999999999999778,0.14799999999999999267,0.28850038850038850491,0.05843045843045843041,0.03558663558663559268,0.06612276612276613008,0.16519036519036517374,-1.21549135755347048615,-0.00361526283084036889,-0.79015235565818675578,0.03490849834950042474
31,31_1,182,102,,,,80.64516129032257651943,93.00000000000000000000,0.97482649690770062367,0.00000000000000000000,0.87744300745973513589,28.00000000000000000000,0.83193319853147373877,13.00000000000000000000,0.76046195270977146041,7.00000000000000000000,0.72816181666876622636,4.00000000000000000000,1.52173913043478270524,0.43478260869565216185,0.65217391304347804848,0.65217391304347838155,1.73913043478260909147,1.57894736842105265495,1.75438596491228060437,1.22807017543859608999,0.87719298245614063525,0.87719298245614063525,0.70175438596491168664,0.70175438596491235277,0.70175438596491235277,0.52631578947368429233,1.05263157894736858466,23.00000000000000000000,0.00000000000000000000,1.08695652173913037686,1.30434782608695609696,0.86956521739130454574,1.73913043478260909147,2.28070175438596489670,5.61403508771929793397,2.10526315789473628115,0.00000000000000000000,0.00000000000000000000,0.00000000000000000000,0.00000000000000000000,0.00000000000000000000,0.00000000000000000000,0.00000000000000000000,10.00000000000000000000,2.39130434782608691791,0.21739130434782608092,0.65217391304347804848,0.65217391304347838155,1.08695652173913082095,0.00000000000000000000,0.70175438596491224175,0.52631578947368407029,4.03508771929824661129,4.56140350877193068158,0.17543859649122792166,0.00000000000000000000,0.00000000000000000000,0.00000000000000000000,0.00000000000000000000,5.00000000000000000000,1.08695652173913037686,0.43478260869565216185,0.65217391304347804848,1.73913043478260909147,1.08695652173913082095,0.00000000000000000000,0.00000000000000000000,0.00000000000000000000,0.00000000000000000000,0.00000000000000000000,3.68421052631578582748,4.38596491228070295421,1.75438596491228127050,0.17543859649122808819,0.00000000000000000000,3.00000000000000000000,0.43478260869565216185,0.43478260869565216185,0.86956521739130399062,1.30434782608695676309,1.95652173913043503362,0.00000000000000000000,0.00000000000000000000,0.00000000000000000000,0.00000000000000000000,0.17543859649122808819,2.80701754385964674654,4.03508771929824661129,2.80701754385964941108,0.17543859649122808819,0.00000000000000000000,13.00000000000000000000,0.03433605740356582281,-0.02192361725205372106,-0.15497305397591598641,-0.24827309689443460838,-0.21255664823803499530,-0.10381848904880872086,-0.00959500672511651338,-0.02097195112460890215,0.03108424389040924385,0.08099651201350518970,0.15335281558142621616,0.20129407993911613284,0.25924448224238116900,0.31987017174916354545,0.38436894623569783924,0.44785491148993572530,0.51246969307600076515,0.58435687290275417638,0.63859661012928592427,0.68444695068031513596,0.73203392762938035432,0.75931815961209259136,0.81697515374240947672,0.83894694428487137650,0.90964201566696512025,0.17855997870502954283,0.75200000000000000178,0.20799999999999999045,0.54400000000000003908,0.08000000000000000167,0.07282590188192575309,0.28000000000000002665,-0.02614195807748853628,0.44000000000000000222,0.43659562508788318791,-0.01533440842599365084,0.23200000000000001177,0.31199999999999999956,2.27545371466245027747,0.27659574468085107446,0.72340425531914898105,0.10638297872340425620,0.37234042553191493141,0.58510638297872341607,0.30851063829787234161,0.41489361702127658393,0.13600000000000000977,0.18085106382978724526,0.32400000000000001021,0.43085106382978721751,0.46000000000000001998,0.61170212765957443501,2.38235294117647056211,0.11200000000000000233,0.14893617021276595036,0.20000000000000001110,0.26595744680851063357,0.31199999999999999956,0.41489361702127658393,1.78571428571428580945,0.08000000000000000167,0.10638297872340425620,0.10000000000000000555,0.13297872340425531679,0.17999999999999999334,0.23936170212765955911,1.25000000000000000000,0.76079110000415461901,11.38297731927269751395,20.02429302651141895808,6.86350618547783142276,12.14376841927685291012,26.88779921198925038084,0.06245927694179728706,0.93754072305820268518,0.74580480615477273698,0.25419519384522726302,0.31129754636123507794,0.68870245363876492206,0.30734934654359569173,0.59459408272192892930,0.01140734004204883856,-0.00612823040005844311,-0.00310968935932298685,-0.00357998198976777759,0.00184410952422375818,0.15680024874169790072,0.76367082878703640425,0.95344510143282157344,0.93466751755829069470,0.67357419901093429360,-0.53944227500351094040,-0.27245972966732556753,-0.31406002526006554509,0.16199843496864296810,4.98337376012922916857,6.18325387463942632849,6.06387163858729838495,4.30565064201995895132,0.03600000000000000422,0.07599999999999999811,0.11599999999999999201,0.00800000000000000017,0.08799999999999999489,0.04787234042553191460,0.10106382978723404964,0.15425531914893617080,0.01063829787234042527,0.11702127659574468321,0.17199999999999998623,0.09600000000000000200,0.02000000000000000042,0.02800000000000000058,0.11599999999999999201,0.22872340425531914598,0.12765957446808512410,0.02659574468085106058,0.03723404255319148759,0.15425531914893617080,-0.11492095504476279588,-0.00454113796027432078,0.04707747992388019997,0.00715223309217619813
31,31_2,182,102,,,,90.36144578313253816759,83.00000000000000000000,0.98008384895442568485,79.00000000000000000000,0.90742632856588856249,29.00000000000000000000,0.87041532032431112587,13.00000000000000000000,0.57094024694954970123,6.00000000000000000000,0.78458401262181698410,3.00000000000000000000,1.13636363636363646457,0.68181818181818176772,0.45454545454545436378,0.90909090909090928267,1.81818181818181856535,1.37931034482758629878,1.55172413793103447510,1.20689655172413745632,1.03448275862068994613,0.86206896551724165878,0.86206896551724065958,0.86206896551724165878,0.51724137931034497306,0.68965517241379326041,1.03448275862068994613,22.00000000000000000000,0.00000000000000000000,0.68181818181818176772,1.36363636363636309135,1.13636363636363668661,1.81818181818181856535,0.17241379310344828735,3.62068965517241370122,6.03448275862068772568,0.17241379310344831510,0.00000000000000000000,0.00000000000000000000,0.00000000000000000000,0.00000000000000000000,0.00000000000000000000,0.00000000000000000000,9.00000000000000000000,2.50000000000000000000,0.22727272727272726516,0.22727272727272718189,0.68181818181818198976,1.36363636363636397952,0.00000000000000000000,0.68965517241379314939,0.34482758620689640816,0.51724137931034497306,7.24137931034482917880,0.68965517241379248325,0.34482758620689663021,0.17241379310344831510,0.00000000000000000000,0.00000000000000000000,5.00000000000000000000,1.13636363636363646457,0.68181818181818176772,1.59090909090909016221,0.90909090909090928267,0.68181818181818198976,0.00000000000000000000,0.00000000000000000000,0.00000000000000000000,0.00000000000000000000,0.00000000000000000000,5.51724137931033986604,3.44827586206896663512,0.51724137931034497306,0.34482758620689663021,0.17241379310344831510,79.00000000000000000000,0.45454545454545453032,0.68181818181818176772,0.68181818181818154567,2.04545454545454585826,1.13636363636363668661,0.00000000000000000000,0.00000000000000000000,0.00000000000000000000,1.37931034482758652082,1.72413793103448331756,3.96551724137930694525,2.58620689655172464327,0.34482758620689663021,0.00000000000000000000,0.00000000000000000000,13.00000000000000000000,0.00997111071251893452,-0.03720092135754062695,-0.13917665267016768316,-0.21816399620855309038,-0.18756853701616138519,-0.09687279591078987173,-0.01244050894413509592,-0.02673332342665818429,0.00880702586382412292,0.05876046700855475091,0.11669616693821258102,0.16275775128305253192,0.21140752997152043036,0.26642682213284030190,0.32616724316936929196,0.38685218827679379583,0.44654248261123863362,0.50925881202430478556,0.56634486582281384770,0.62082719491576998649,0.67850331406898756192,0.72601499192269181027,0.77799172402092287015,0.83066006549889859212,0.90382639003628395535,0.23988696622697794347,0.77200000000000001954,0.20800000000000001821,0.56400000000000005684,0.08000000000000000167,0.05478659013327630278,0.27200000000000001954,-0.02034606608693395602,0.44000000000000000222,0.54341884304145260387,-0.01317399362413729236,0.23199999999999998401,0.33199999999999996181,1.80269088463325344307,0.26949097938144328523,0.73050902061855671477,0.10362972508591064558,0.35239475945017184610,0.57012457044673536810,0.30063359106529208287,0.42987542955326463190,0.20800000000000001821,0.26949097938144328523,0.46800000000000002709,0.60674398625429559750,0.67599999999999993427,0.87623496563573888274,2.23925925925925906057,0.13200000000000000622,0.17101589347079038106,0.26000000000000000888,0.33693084192439859414,0.39200000000000001510,0.50794673539518897520,1.96691176470588224845,0.09199999999999999845,0.11920103092783504439,0.12399999999999999911,0.16065292096219929707,0.21599999999999999756,0.27985395189003436922,1.34848484848484839738,1.74180302109181162074,10.31109021779248635653,17.87908334385297237645,7.79260578713680196472,12.05289323888429819931,25.67168913098977611753,0.12946837098209526551,0.87053162901790470674,0.70907860067404882010,0.29092139932595117990,0.32001440405029746294,0.67998559594970253706,0.20963894716375650051,0.58002000163372213759,0.00902069364609794921,-0.00515879453760476059,-0.00241665542068952854,-0.00329857395153393407,0.00119643559843146674,0.37837268172909321873,0.81069157026182625536,0.97383117421848375272,0.95897068901051829570,0.70877462398954327316,-0.57155428916321104893,-0.26836697635535866624,-0.36564279787743064754,0.13296287691965380517,2.16316024249102101251,2.58475242707779262474,2.54410543668814392859,1.87153292268158066847,0.04000000000000000083,0.07199999999999999456,0.08400000000000000522,0.02400000000000000050,0.11200000000000000233,0.05186855670103092397,0.09315936426116838698,0.10899914089347079171,0.03098152920962199061,0.14497422680412369589,0.16800000000000001044,0.09600000000000000200,-0.01200000000000000025,0.01200000000000000025,0.12399999999999999911,0.21762242268041237514,0.12446305841924398816,-0.01546391752577319645,0.01551761168384879763,0.16049183848797249352,-0.07050739185007562360,-0.00350206960875305319,0.06245548506957817464,0.00146224767555460213
31,31_3,182,102,,,,81.96721311475410232106,91.50000000000000000000,0.97575428773655636938,76.00000000000000000000,0.88106644320428029182,28.00000000000000000000,0.83076546013057395168,13.00000000000000000000,0.76022065502709801343,7.00000000000000000000,0.77220903649412653280,4.00000000000000000000,1.30434782608695654105,0.65217391304347827052,0.43478260869565199531,0.86956521739130454574,1.73913043478260909147,1.92982456140350877583,1.57894736842105265495,1.22807017543859608999,0.87719298245614063525,0.70175438596491235277,0.87719298245613963605,0.70175438596491235277,0.52631578947368429233,0.52631578947368429233,1.05263157894736858466,23.00000000000000000000,0.00000000000000000000,1.08695652173913037686,1.08695652173913015481,1.08695652173913082095,1.73913043478260909147,1.92982456140350877583,4.73684210526315752077,3.33333333333333214910,0.00000000000000000000,0.00000000000000000000,0.00000000000000000000,0.00000000000000000000,0.00000000000000000000,0.00000000000000000000,0.00000000000000000000,9.00000000000000000000,2.39130434782608691791,0.43478260869565216185,0.21739130434782599766,0.65217391304347838155,1.30434782608695676309,0.52631578947368418131,0.52631578947368418131,0.35087719298245600985,4.56140350877193068158,4.03508771929824661129,0.00000000000000000000,0.00000000000000000000,0.00000000000000000000,0.00000000000000000000,0.00000000000000000000,5.00000000000000000000,0.86956521739130432369,0.65217391304347827052,0.65217391304347804848,1.73913043478260909147,1.08695652173913082095,0.00000000000000000000,0.00000000000000000000,0.00000000000000000000,0.00000000000000000000,0.00000000000000000000,3.15789473684210220128,4.91228070175438702449,1.22807017543859675612,0.70175438596491235277,0.00000000000000000000,2.00000000000000000000,0.86956521739130432369,0.21739130434782608092,1.08695652173913015481,1.73913043478260909147,1.08695652173913082095,0.00000000000000000000,0.00000000000000000000,0.00000000000000000000,0.00000000000000000000,0.17543859649122808819,2.98245614035087491800,4.03508771929824661129,2.63157894736842168371,0.17543859649122808819,0.00000000000000000000,13.00000000000000000000,0.03078356534548041396,-0.03502926092074254427,-0.16673494665720842156,-0.25007026288118594515,-0.20875923159549347741,-0.10193064807469785771,-0.01143776636287541573,-0.02645747726595322480,0.02767449775299982151,0.08483642738995805788,0.16399660896998796700,0.21379145100241511712,0.27279473195751341441,0.33702507495585387609,0.40452278965567378677,0.47353665402511102567,0.53725039926039008797,0.60472330778858240929,0.65674750533061776459,0.70418563086703866993,0.75473529672648598243,0.79262839857770794882,0.84728692763575530478,0.86930660620989674836,0.93625693908337481730,0.15589986493203028539,0.72799999999999998046,0.20400000000000001465,0.52400000000000002132,0.07199999999999999456,0.06922067633839101841,0.26800000000000001599,-0.02776391520845883365,0.43199999999999999512,0.36898477878241164873,-0.01611220827266088285,0.22800000000000000822,0.29599999999999998535,2.52539949435935628941,0.28021978021978022344,0.71978021978021977656,0.09890109890109889668,0.36813186813186815627,0.59340659340659340781,0.31318681318681318437,0.40659340659340659219,0.14000000000000001332,0.19230769230769229061,0.29199999999999998179,0.40109890109890111720,0.43199999999999999512,0.59340659340659340781,2.08823529411764674535,0.11200000000000000233,0.15384615384615385469,0.18399999999999999689,0.25274725274725273749,0.29599999999999998535,0.40659340659340659219,1.64285714285714279370,0.08000000000000000167,0.10989010989010988828,0.08799999999999999489,0.12087912087912087988,0.16800000000000001044,0.23076923076923078204,1.10000000000000008882,0.73758473444972505462,11.20247268416501995603,18.36724923414300647551,5.50385676218478714361,11.94005741861474589882,23.87110599632779184276,0.06134722127163198813,0.93865277872836805351,0.76944082961153648093,0.23055917038846357459,0.33336913313948457471,0.66663086686051553631,0.31851635045966686377,0.59619199774924525048,0.01045820485943572964,-0.00590899197003191823,-0.00320260482982137606,-0.00501747297270788151,0.00227628023131459800,0.17163942125887698964,0.67784448091753835008,0.90564652082766650132,0.90657422278219534917,0.63653130056955586902,-0.56500007292139797777,-0.30624320541584493238,-0.47972881653624432907,0.21772377960303962441,3.96539836004535839464,5.28952880658948654258,5.30759310874839229655,3.72058577006263302422,0.03600000000000000422,0.06400000000000000133,0.06800000000000000488,0.04800000000000000100,0.08799999999999999489,0.04945054945054945528,0.08791208791208791895,0.09340659340659340781,0.06593406593406593574,0.12087912087912087988,0.16800000000000001044,0.10399999999999999523,-0.03600000000000000422,0.01200000000000000025,0.10000000000000000555,0.23076923076923078204,0.14285714285714284921,-0.04945054945054945528,0.01648351648351648394,0.13736263736263737423,0.00324816942765168357,-0.00452518276158084612,0.22097194903069128369,0.00119560173861008815
56,56_1,114,75,,,,109.48905109489051312721,68.50000000000000000000,0.97240951326154834167,78.00000000000000000000,0.95055699171112117973,33.00000000000000000000,0.90893382547699863583,17.00000000000000000000,0.85892743176107544389,9.00000000000000000000,0.50341716084297372102,1.00000000000000000000,1.66666666666666674068,0.62500000000000000000,0.62499999999999977796,0.41666666666666674068,1.66666666666666696273,0.89285714285714290472,0.35714285714285715079,1.07142857142857095276,3.57142857142857250707,0.53571428571428580945,0.53571428571428525434,0.53571428571428580945,0.53571428571428580945,0.71428571428571441260,1.25000000000000022204,24.00000000000000000000,0.00000000000000000000,0.41666666666666668517,1.24999999999999955591,1.25000000000000022204,2.08333333333333392545,2.14285714285714279370,0.89285714285714290472,3.03571428571428469922,3.92857142857142971337,0.00000000000000000000,0.00000000000000000000,0.00000000000000000000,0.00000000000000000000,0.00000000000000000000,0.00000000000000000000,13.00000000000000000000,1.87500000000000000000,0.20833333333333334259,0.41666666666666651864,0.41666666666666674068,2.08333333333333392545,0.53571428571428569843,0.35714285714285715079,0.89285714285714257166,3.03571428571428603149,1.96428571428571485669,1.42857142857142727088,1.42857142857142882519,0.35714285714285720630,0.00000000000000000000,0.00000000000000000000,3.00000000000000000000,1.25000000000000000000,1.04166666666666674068,1.87499999999999933387,0.41666666666666674068,0.41666666666666674068,0.00000000000000000000,0.00000000000000000000,0.00000000000000000000,0.00000000000000000000,1.78571428571428625354,3.03571428571428336696,1.96428571428571485669,2.32142857142857206298,0.35714285714285720630,0.53571428571428580945,76.00000000000000000000,1.45833333333333325932,1.45833333333333325932,1.24999999999999955591,0.83333333333333348136,0.00000000000000000000,0.00000000000000000000,0.00000000000000000000,0.35714285714285703977,1.96428571428571485669,3.21428571428571485669,2.49999999999999777955,1.07142857142857161890,0.71428571428571441260,0.17857142857142860315,0.00000000000000000000,73.00000000000000000000,0.04335306213831932598,-0.01107720449631986216,-0.11593672851480345265,-0.19321838370142305208,-0.17318592201939922437,-0.08790924694502390280,-0.00973389382103172392,-0.02997861410480676461,0.01556303147925440326,0.06098775029592561764,0.14535760131718825083,0.23706953648655895717,0.33132958903861525757,0.40577025959202345229,0.44969936514719321963,0.47777696063878100086,0.48029877798995174176,0.48254549681357089552,0.48058857552519201883,0.50896459134901017585,0.54664198503225380765,0.59576570532305295202,0.67254481668362686708,0.73678856227873801288,0.86420938732469398946,0.32939033473480389125,0.55466666666666675223,0.16000000000000000333,0.39466666666666666563,0.06666666666666666574,0.07401160459684298643,0.24266666666666666941,-0.03824144890195722152,0.35466666666666668561,0.32668386590452241913,-0.00232243930581467950,0.19466666666666668228,0.19999999999999998335,3.03268469448318933601,0.28836794289422451598,0.71163205710577548402,0.11948109693080492810,0.43870622731751868217,0.64005756242939881862,0.35168961953517435814,0.35994243757060112587,0.10933333333333333792,0.19741269497921021259,0.27733333333333337611,0.49747939048717765287,0.38666666666666665853,0.69489208546638792097,2.59841269841269850716,0.08266666666666666607,0.14947604970317493467,0.15466666666666664676,0.27623056216502034355,0.23733333333333331283,0.42570661186819530597,1.92037037037037028320,0.05599999999999999423,0.10139519792342634175,0.07733333333333332338,0.13923738793952941672,0.13333333333333333148,0.24063258586295574459,1.41269841269841278653,0.95635843081473748128,7.29881342669881139074,13.78374329113702856375,5.33364383290774224378,8.25517185751354887202,19.11738712404476814299,0.11639048202506475926,0.88360951797493525461,0.74692890310571546930,0.25307109689428447519,0.31059393617891195571,0.68940606382108793326,0.28442609762117421202,0.53938770373397493252,0.01371254086501358903,-0.00917242421652133232,-0.00273312507197787102,-0.00517194572886399851,0.00621048302839144473,0.10925258311822183543,0.67847887882088198097,0.86735251804228019612,0.79364359718971544400,0.42080588623530451597,-0.71456871940650401598,-0.21414448623637069580,-0.39482076823517403552,0.45831635765013573058,6.56788401761063056483,8.23583192052736556832,7.60936362017904954769,4.06022875493925727852,0.01333333333333333419,0.07199999999999999456,0.06400000000000000133,0.04000000000000000083,0.09066666666666667318,0.02375201288244766298,0.12868327444901098144,0.11583086980556156487,0.07335905015982886745,0.16313360732569037737,0.14666666666666669516,0.07466666666666665897,-0.01066666666666666631,0.02933333333333333279,0.11999999999999999556,0.26461593001177691198,0.13593265556276587502,-0.02010178575720431710,0.05325726440262455036,0.21639087172831494854,-0.56391982258509509851,-0.00654400763619630930,-0.10560346493495927078,0.02126367871566637799
56,56_3,114,75,,,,113.63636363636364023932,66.00000000000000000000,0.97868823397377935347,78.00000000000000000000,0.93962717224884817480,34.00000000000000000000,0.91728636452085765551,16.00000000000000000000,0.85005687975435617609,10.00000000000000000000,0.78627332911744918231,1.00000000000000000000,1.80000000000000004441,0.59999999999999997780,0.59999999999999975575,0.60000000000000008882,1.40000000000000035527,1.09090909090909082835,0.90909090909090906063,2.18181818181818121261,1.81818181818181878739,0.72727272727272740394,0.54545454545454497008,0.36363636363636370197,0.54545454545454563622,0.36363636363636370197,1.45454545454545480787,25.00000000000000000000,0.00000000000000000000,0.40000000000000002220,0.99999999999999966693,1.20000000000000017764,2.40000000000000035527,2.54545454545454541417,2.72727272727272707087,2.72727272727272618269,1.81818181818181878739,0.18181818181818185098,0.00000000000000000000,0.00000000000000000000,0.00000000000000000000,0.00000000000000000000,0.00000000000000000000,15.00000000000000000000,1.39999999999999991118,0.40000000000000002220,0.39999999999999985567,0.40000000000000007772,2.40000000000000035527,0.36363636363636364646,0.54545454545454541417,0.72727272727272695985,2.00000000000000044409,2.72727272727272795905,1.63636363636363491025,1.81818181818181878739,0.18181818181818185098,0.00000000000000000000,0.00000000000000000000,4.00000000000000000000,1.60000000000000008882,0.40000000000000002220,1.99999999999999933387,0.60000000000000008882,0.40000000000000007772,0.00000000000000000000,0.00000000000000000000,0.00000000000000000000,1.09090909090909127244,1.09090909090909127244,1.81818181818181656695,1.09090909090909127244,3.09090909090909127244,1.27272727272727292913,0.54545454545454563622,39.00000000000000000000,0.40000000000000002220,1.00000000000000000000,1.39999999999999946709,1.40000000000000035527,0.80000000000000015543,0.00000000000000000000,0.00000000000000000000,0.36363636363636347992,0.54545454545454563622,3.09090909090909127244,1.81818181818181656695,3.09090909090909127244,0.72727272727272740394,0.18181818181818185098,0.18181818181818185098,25.00000000000000000000,0.05619619640315463155,0.01956331985373656324,-0.07178423817216540714,-0.15483132568941704310,-0.15621706502991386523,-0.08228140025030288018,-0.00943229268266405733,-0.03654468011362461272,0.00285665221578789005,0.04708555178788134676,0.13251080899316347583,0.22313886040385577658,0.29860130216146085758,0.36555627080915598093,0.41235565213032882026,0.43405070686913133082,0.43973017980852319164,0.44096992223909498021,0.44835949833238092355,0.46464108484554217382,0.49826706344131904691,0.56497148649019168776,0.65015093122011158311,0.73799008126115073214,0.87456649914242323707,0.29482314443424684214,0.50800000000000000711,0.14799999999999999267,0.35999999999999998668,0.06400000000000000133,0.07322399048876951366,0.23199999999999998401,-0.04428339256399460577,0.32000000000000000666,0.25853679742881119363,-0.01143825610000145931,0.17199999999999998623,0.18800000000000000044,3.48605182126126056374,0.29148037754595135240,0.70851962245404864760,0.12617983109786390372,0.45615996025832095118,0.63027819175360155768,0.33879781420765026079,0.36972180824639844232,0.10400000000000000910,0.20442126179831099364,0.21600000000000002531,0.42151018380526572571,0.32000000000000000666,0.62593144560357671935,2.04761904761904744987,0.07999999999999998779,0.15710382513661202974,0.11199999999999998845,0.22019374068554395385,0.19200000000000000400,0.37729756582215601135,1.40404040404040397760,0.05600000000000000117,0.10978638847491306585,0.07199999999999999456,0.14195230998509686393,0.12800000000000000266,0.25173869846000995754,1.31250000000000000000,1.08808606156291909350,6.59576393365373903066,12.32108147018141153239,3.49515312771760155997,7.68384999521665790212,15.81623459789901353645,0.13906177048872028768,0.86093822951127974008,0.78104669382746849671,0.21895330617253142003,0.32642244464001274329,0.67357755535998720120,0.40222266846684817665,0.57142115330553033825,0.01355911236519911564,-0.01170488143427256267,-0.00369649390999238214,-0.00787732166796140110,0.00555186443446514799,0.09751637548012967449,0.82145954781950614176,0.85660692447565989216,0.82194186028618065887,0.42858323750515237016,-0.87178812687177398288,-0.26979406503281100349,-0.59116777378518781116,0.40553129037348567554,9.30691092421524501788,9.70707791454418966737,9.29067359442854012741,5.17664517297034443288,0.00400000000000000008,0.10000000000000000555,0.03600000000000000422,0.02400000000000000050,0.09600000000000000200,0.00819672131147541026,0.19684550422255339686,0.07190760059612519295,0.04669647292598112787,0.18616492796820666156,0.14400000000000001688,0.04399999999999999745,-0.00800000000000000017,0.01600000000000000033,0.11199999999999998845,0.28328365623447593347,0.08643815201192250885,-0.01453055141579731764,0.03216592151018380502,0.21833084947839043188,-0.41635757842726073275,-0.00715832854571725116,-0.01082628805377511445,0.00357654502735573962
