patient,trial,SP,DP,ppg_fft_peaks_0,ppg_fft_peaks_heights_0,ppg_fft_peaks_neighbor_avgs_0,hr_0,p2p_0,ppg_max_neighbor_mean_0,ppg_min_0,vpg_max_neighbor_mean_0,vpg_min_0,apg_max_neighbor_mean_0,apg_min_0,ppg3_max_neighbor_mean_0,ppg3_min_0,ppg4_max_neighbor_mean_0,ppg4_min_0,ppg_histogram_up_0,ppg_histogram_up_1,ppg_histogram_up_2,ppg_histogram_up_3,ppg_histogram_up_4,ppg_histogram_down_0,ppg_histogram_down_1,ppg_histogram_down_2,ppg_histogram_down_3,ppg_histogram_down_4,ppg_histogram_down_5,ppg_histogram_down_6,ppg_histogram_down_7,ppg_histogram_down_8,ppg_histogram_down_9,ppg_max_0,vpg_histogram_up_0,vpg_histogram_up_1,vpg_histogram_up_2,vpg_histogram_up_3,vpg_histogram_up_4,vpg_histogram_down_0,vpg_histogram_down_1,vpg_histogram_down_2,vpg_histogram_down_3,vpg_histogram_down_4,vpg_histogram_down_5,vpg_histogram_down_6,vpg_histogram_down_7,vpg_histogram_down_8,vpg_histogram_down_9,vpg_max_0,apg_histogram_up_0,apg_histogram_up_1,apg_histogram_up_2,apg_histogram_up_3,apg_histogram_up_4,apg_histogram_down_0,apg_histogram_down_1,apg_histogram_down_2,apg_histogram_down_3,apg_histogram_down_4,apg_histogram_down_5,apg_histogram_down_6,apg_histogram_down_7,apg_histogram_down_8,apg_histogram_down_9,apg_max_0,ppg3_histogram_up_0,ppg3_histogram_up_1,ppg3_histogram_up_2,ppg3_histogram_up_3,ppg3_histogram_up_4,ppg3_histogram_down_0,ppg3_histogram_down_1,ppg3_histogram_down_2,ppg3_histogram_down_3,ppg3_histogram_down_4,ppg3_histogram_down_5,ppg3_histogram_down_6,ppg3_histogram_down_7,ppg3_histogram_down_8,ppg3_histogram_down_9,ppg3_max_0,ppg4_histogram_up_0,ppg4_histogram_up_1,ppg4_histogram_up_2,ppg4_histogram_up_3,ppg4_histogram_up_4,ppg4_histogram_down_0,ppg4_histogram_down_1,ppg4_histogram_down_2,ppg4_histogram_down_3,ppg4_histogram_down_4,ppg4_histogram_down_5,ppg4_histogram_down_6,ppg4_histogram_down_7,ppg4_histogram_down_8,ppg4_histogram_down_9,ppg4_max_0,usdc_0,usdc_1,usdc_2,usdc_3,usdc_4,usdc_5,dsdc_0,dsdc_1,dsdc_2,dsdc_3,dsdc_4,dsdc_5,dsdc_6,dsdc_7,dsdc_8,dsdc_9,dsdc_10,dsdc_11,dsdc_12,dsdc_13,dsdc_14,dsdc_15,dsdc_16,dsdc_17,dsdc_18,ppg_mean_cycles_match_peak_59,Tc,Ts,Td,Tsteepest,Steepest,TNegSteepest,NegSteepest,TdiaRise,DiaRise,SteepDiaRise,TSystoDiaRise,TdiaToEnd,Ratio,Ts_norm,Td_norm,Tsteepest_norm,TNegSteepest_norm,TdiaRise_norm,TSystoDiaRise_norm,TdiaToEnd_norm,SW25,SW25_norm,DW25,DW25_norm,SWaddDW25,SWaddDW25_norm,DWdivSW25,SW50,SW50_norm,DW50,DW50_norm,SWaddDW50,SWaddDW50_norm,DWdivSW50,SW75,SW75_norm,DW75,DW75_norm,SWaddDW75,SWaddDW75_norm,DWdivSW75,S1,S2,S3,S4,AUCsys,AUCdia,S1_norm,S2_norm,S3_norm,S4_norm,AUCsys_norm,AUCdia_norm,SQI_skew,SQI_kurtosis,apg_a,apg_b,apg_c,apg_d,apg_e,ppg_a,ppg_b,ppg_c,ppg_d,ppg_e,ratio_apg_b,ratio_apg_c,ratio_apg_d,ratio_apg_e,ratio_ppg_b,ratio_ppg_c,ratio_ppg_d,ratio_ppg_e,T_a,T_b,T_c,T_d,T_e,T_a_norm,T_b_norm,T_c_norm,T_d_norm,T_e_norm,T_peak_a,T_peak_b,T_peak_c,T_peak_d,T_peak_e,T_peak_a_norm,T_peak_b_norm,T_peak_c_norm,T_peak_d_norm,T_peak_e_norm,AI,bd,bcda,sdoo
12,12_3,108,73,,,,85.71428571428572240620,87.50000000000000000000,0.96280718776053519914,0.00000000000000000000,0.88882994608043153217,30.00000000000000000000,0.93614516072755438181,14.00000000000000000000,0.73455293402229893118,9.00000000000000000000,0.62662042379100157952,57.00000000000000000000,1.66666666666666674068,0.47619047619047616404,0.47619047619047599751,0.71428571428571441260,1.66666666666666696273,0.00000000000000000000,1.18644067796610164223,1.18644067796610119814,3.55932203389830625895,0.50847457627118652912,0.67796610169491466902,0.67796610169491533515,0.50847457627118652912,0.50847457627118652912,1.18644067796610186427,21.00000000000000000000,0.00000000000000000000,0.71428571428571430157,1.19047619047619024357,0.95238095238095255013,2.14285714285714323779,2.88135593220338970255,2.71186440677966089652,2.37288135593220239627,2.03389830508474611648,0.00000000000000000000,0.00000000000000000000,0.00000000000000000000,0.00000000000000000000,0.00000000000000000000,0.00000000000000000000,10.00000000000000000000,1.90476190476190465617,0.47619047619047616404,0.23809523809523799875,0.47619047619047627506,1.90476190476190510026,0.00000000000000000000,0.33898305084745761206,0.84745762711864380812,2.71186440677966134061,2.20338983050847492251,3.05084745762711584405,0.84745762711864436323,0.00000000000000000000,0.00000000000000000000,0.00000000000000000000,3.00000000000000000000,0.71428571428571430157,0.95238095238095232808,1.66666666666666607455,0.95238095238095255013,0.71428571428571441260,0.00000000000000000000,0.00000000000000000000,0.00000000000000000000,0.33898305084745766758,1.01694915254237305824,3.38983050847457345611,2.71186440677966134061,1.86440677966101753249,0.33898305084745766758,0.33898305084745766758,1.00000000000000000000,0.00000000000000000000,0.95238095238095232808,2.14285714285714234961,1.90476190476190510026,0.00000000000000000000,0.00000000000000000000,0.00000000000000000000,0.50847457627118630707,2.20338983050847492251,4.06779661016949223296,1.35593220338982933804,1.18644067796610186427,0.33898305084745766758,0.33898305084745766758,0.00000000000000000000,21.00000000000000000000,0.00386351437136774230,-0.07332111000724979288,-0.17585802505730344092,-0.25682493286984225955,-0.22451860644767307473,-0.11675432486761166961,-0.00876243627497616355,-0.02596310981887218344,0.00510696621844092084,0.07435002263123199895,0.14816043834410680402,0.21165226760635061365,0.28606909660887502866,0.37837728984748675298,0.47189385017609275508,0.52187914431706927676,0.54615986874581290422,0.53436149412661326785,0.50948504816749629054,0.47299810287951937759,0.48887273477325277060,0.50913620049330909900,0.56046509980362824166,0.63560230024738895160,0.72398946013298770552,0.33342595786453949058,0.63466666666666660124,0.17600000000000001754,0.45866666666666672247,0.08000000000000000167,0.06515156369801171354,0.22400000000000000466,-0.02424041898636071848,0.30666666666666664298,0.55786136161529398247,-0.00402827921913863785,0.13066666666666668095,0.32800000000000001377,1.94535263629463028856,0.28342283491575459564,0.71657716508424529334,0.12944470135356389573,0.36303063884271469242,0.49716775054541112455,0.21374491562965647340,0.50283224945458881994,0.12533333333333332438,0.20359006192204129326,0.38133333333333330195,0.60598751005070139453,0.50666666666666670960,0.80957757197274260452,3.03361344537815114109,0.09066666666666667318,0.14477037185164817745,0.16800000000000001044,0.26240072545580539476,0.25866666666666665586,0.40717109730745359997,1.84731934731934721583,0.06133333333333332998,0.09833439568725967084,0.09066666666666667318,0.14150832038372501698,0.15199999999999999623,0.23984271607098470169,1.48148148148148162129,0.84912419920740356272,6.61352786131759540211,7.54689537952760236550,12.82719900389038691912,7.46265206052499863176,20.37409438341799372552,0.10790742712536878500,0.89209257287463117336,0.45819950702091666317,0.54180049297908328132,0.27806757948358012955,0.72193242051642003698,0.45923860377568725966,0.51404874146747470132,0.00823924477924542660,-0.00822660477333342355,-0.00006413919287865759,-0.00674825516851966078,0.00676374915833046365,0.11958042304094880504,0.66562491801287360094,0.81266173170799615999,0.79246100207280323335,0.44647249005950245815,-1.06895491992235469603,-0.08161154767538456034,-0.95705176690129312167,1.02372566735903869350,9.15021169449078008995,11.86592491925118508789,11.43799199162087631976,6.98659975942050248676,0.00800000000000000017,0.09066666666666667318,0.06400000000000000133,0.05066666666666666541,0.11466666666666668062,0.01449800652410293544,0.14322544539014772647,0.09401068464197283314,0.09262268104802257040,0.17607717827687582868,0.16800000000000001044,0.07733333333333332338,-0.01333333333333333419,0.03733333333333333642,0.15199999999999999623,0.26892482839165171571,0.12569938300150396149,-0.03168869835953112141,0.06093398268849144900,0.23701116096536725686,-1.05401727270471567977,-0.00502430328120106410,-0.03029160534567691340,0.01945925363954686613
12,12_2,108,73,,,,83.33333333333332859638,90.00000000000000000000,0.97456402889318261007,79.00000000000000000000,0.87333336760510182906,30.00000000000000000000,0.91888820404244475615,17.00000000000000000000,0.70308251832496837519,14.00000000000000000000,0.47324049688212294074,13.00000000000000000000,1.42857142857142860315,0.71428571428571430157,0.47619047619047599751,0.71428571428571441260,1.66666666666666696273,0.67796610169491522413,3.05084745762711850858,1.18644067796610119814,0.50847457627118652912,0.67796610169491533515,0.50847457627118597401,0.67796610169491533515,1.01694915254237305824,0.50847457627118652912,1.18644067796610186427,21.00000000000000000000,0.00000000000000000000,1.19047619047619046562,0.71428571428571407953,0.95238095238095255013,2.14285714285714323779,3.89830508474576253874,3.89830508474576253874,2.20338983050847359024,0.00000000000000000000,0.00000000000000000000,0.00000000000000000000,0.00000000000000000000,0.00000000000000000000,0.00000000000000000000,0.00000000000000000000,9.00000000000000000000,1.42857142857142860315,1.19047619047619046562,0.23809523809523799875,0.47619047619047627506,1.66666666666666696273,0.00000000000000000000,0.00000000000000000000,1.01694915254237261415,2.03389830508474611648,4.06779661016949223296,2.37288135593220150810,0.50847457627118652912,0.00000000000000000000,0.00000000000000000000,0.00000000000000000000,5.00000000000000000000,0.95238095238095232808,1.19047619047619046562,1.19047619047619024357,0.95238095238095255013,0.71428571428571441260,0.00000000000000000000,0.00000000000000000000,0.16949152542372875052,1.18644067796610186427,2.88135593220339014664,2.71186440677965867607,2.03389830508474611648,0.67796610169491533515,0.00000000000000000000,0.33898305084745766758,79.00000000000000000000,0.47619047619047616404,1.90476190476190465617,1.66666666666666607455,0.00000000000000000000,0.95238095238095255013,0.33898305084745761206,0.84745762711864403016,1.01694915254237261415,2.54237288135593253458,1.86440677966101753249,2.20338983050847270206,0.84745762711864436323,0.16949152542372883379,0.16949152542372883379,0.00000000000000000000,19.00000000000000000000,0.00786746619201094018,-0.06609153335368316007,-0.19072946964496348410,-0.26886055547036719071,-0.22790541502181452249,-0.11898456785353513088,-0.01284477111839815722,-0.02345608161650310219,0.02256540826028026470,0.07794106720991059167,0.11220643011130060351,0.13074376634147974463,0.19650567710346569794,0.27351362557474129256,0.37132523142371498537,0.47312220218636086289,0.58404048067684521950,0.64294743593808567628,0.68508059571668067367,0.69507441156553273487,0.70820831847243903567,0.71236045303066874990,0.78474830731650280224,0.78724556666199629884,0.80709016649227149909,0.15353525595566289152,0.66666666666666662966,0.17866666666666666807,0.48799999999999998934,0.08533333333333333048,0.07480472346452821109,0.25600000000000000533,-0.03228155786098485525,0.34666666666666667851,0.52858141154742066536,-0.00917835136618961635,0.16800000000000001044,0.32000000000000000666,2.32841585503173709171,0.27082865243674097977,0.72917134756325896472,0.12967955919328089109,0.38673478485707662999,0.51905169493036606987,0.24822304249362506234,0.48094830506963393013,0.11733333333333333115,0.17769931703489719177,0.27733333333333337611,0.42701367713404309034,0.39466666666666672114,0.60471299416894019885,2.38557692307692326139,0.09066666666666667318,0.13732591522673370799,0.19466666666666665453,0.30079887301842045400,0.28533333333333338322,0.43812478824515416198,2.17435897435897418362,0.06400000000000000133,0.09683303910554752481,0.09866666666666668029,0.15074091906061090618,0.16266666666666665386,0.24757395816615845874,1.55753968253968255731,1.35929426466330594003,7.97916887793057316713,13.25459305535629717099,10.43472284105313541147,9.33846314259387888512,23.68931589640943613517,0.15610362714661216166,0.84389637285338781059,0.56849134679271307036,0.43150865320728692964,0.28043003872054578229,0.71956996127945416220,0.32440487380264831918,0.57383687878626565837,0.01235198817756604818,-0.01245504123740746351,0.00009192884912086659,-0.00559716387455981134,0.00653125132181144475,0.18758835952695962490,0.72504933381551983640,0.77555798890166405268,0.80485692589081614390,0.65397249083562769556,-1.01831217139908480895,0.00616091949328186495,-0.46212302705327729102,0.53238627631510637706,4.13487372570874800459,4.46908816394761831958,4.68670804120686224081,3.84225775928138801874,0.03733333333333332948,0.06666666666666666574,0.06666666666666666574,0.05600000000000001504,0.04533333333333333659,0.05482979368391019404,0.10562242550687424292,0.09958094830506963868,0.08008167050054387781,0.06999411544428395249,0.14133333333333333859,0.07466666666666665897,-0.00800000000000000017,0.04799999999999999406,0.09333333333333332371,0.21599885875283084125,0.11037643324595659833,-0.01079548494088695965,0.06928618555965690429,0.13928030100394087065,-1.09473634015419585275,-0.00503445119631386762,-0.56235006383908936467,0.02112145082554793551
12,12_1,108,73,,,,92.02453987730061157890,81.50000000000000000000,0.96879618268639600132,79.00000000000000000000,0.88644982842243291721,29.00000000000000000000,0.82989176394810693083,15.00000000000000000000,0.78534026878607565703,9.00000000000000000000,0.54939668628186510979,5.00000000000000000000,1.59090909090909082835,0.68181818181818176772,0.45454545454545436378,0.68181818181818198976,1.59090909090909127244,0.86206896551724132571,0.86206896551724132571,0.86206896551724110367,1.03448275862068994613,1.37931034482758652082,1.37931034482758496651,1.20689655172413812245,0.68965517241379326041,0.51724137931034497306,1.20689655172413812245,22.00000000000000000000,0.00000000000000000000,0.90909090909090906063,1.13636363636363602048,1.13636363636363668661,1.81818181818181856535,3.62068965517241370122,4.13793103448275889633,2.06896551724137855999,0.17241379310344831510,0.00000000000000000000,0.00000000000000000000,0.00000000000000000000,0.00000000000000000000,0.00000000000000000000,0.00000000000000000000,11.00000000000000000000,1.81818181818181812126,0.45454545454545453032,0.22727272727272718189,1.59090909090909127244,0.90909090909090928267,0.00000000000000000000,0.68965517241379314939,0.51724137931034464000,4.13793103448275978451,2.93103448275862099592,1.37931034482758496651,0.34482758620689663021,0.00000000000000000000,0.00000000000000000000,0.00000000000000000000,7.00000000000000000000,1.13636363636363646457,0.45454545454545453032,1.13636363636363602048,2.04545454545454585826,0.22727272727272732067,0.00000000000000000000,0.00000000000000000000,0.00000000000000000000,0.17241379310344831510,1.55172413793103469715,2.58620689655172153465,3.27586206896551779266,1.89655172413793149389,0.51724137931034497306,0.00000000000000000000,0.00000000000000000000,0.22727272727272726516,0.22727272727272726516,2.04545454545454497008,1.81818181818181856535,0.68181818181818198976,0.00000000000000000000,0.00000000000000000000,0.00000000000000000000,0.86206896551724165878,2.24137931034482829062,3.44827586206896263832,1.89655172413793149389,0.68965517241379326041,0.86206896551724165878,0.00000000000000000000,15.00000000000000000000,0.02531089425783746016,-0.01794545282165970618,-0.11292323000299980817,-0.21459121009631906829,-0.19878913525347530200,-0.10081346406660193771,-0.00480396473498792467,-0.00714374709992547218,0.03640887635727071969,0.08633366373480741429,0.13567444035481673881,0.17043210458498486704,0.19265473594903828602,0.19377141826524912904,0.20516595326371983576,0.23395592887381194691,0.27379046360771214230,0.30221350363877885759,0.34339657633378278812,0.40177984479085598890,0.47351982260619163156,0.54447723366226186137,0.64882021176390436423,0.73872918041899726660,0.87298600338767551321,0.36876252159689459909,0.67200000000000004174,0.18399999999999999689,0.48799999999999998934,0.07599999999999999811,0.07936373270578780947,0.22000000000000000111,-0.02422985319558995654,0.28400000000000003020,0.73794138726520186466,-0.00460818136032892234,0.10000000000000000555,0.38800000000000001155,1.34570142469739018054,0.27356484762579730274,0.72643515237420275277,0.11289865343727853442,0.32678951098511693774,0.42119064493267188709,0.14762579730687455659,0.57880935506732811291,0.11599999999999999201,0.17257264351523743384,0.36399999999999999023,0.54138908575478383867,0.47999999999999998224,0.71396172927002132802,3.13571428571428612031,0.09199999999999999845,0.13685329553508152056,0.25600000000000000533,0.38029766123316799398,0.34799999999999997602,0.51715095676824940352,2.76893939393939403359,0.05999999999999999778,0.08922749822820694177,0.09600000000000000200,0.14316087880935507437,0.15599999999999999978,0.23238837703756198838,1.62500000000000000000,0.81074847211006262349,9.05223830809062590674,8.83269437137876423094,18.74723908565893992773,9.86298678020068919636,27.57993345703770415867,0.08210321732577698095,0.91789678267422303293,0.31069271266902853679,0.68930728733097146321,0.26336736758624940125,0.73663263241375065427,0.01775825525655473636,0.54862252221315599421,0.01692271993263934696,-0.00663213713261434634,0.00205246772757128326,-0.00648927337329285869,0.00619863463651532109,0.11290767751850620815,0.60721432473288705634,0.90002376043384113569,0.82175477718069922517,0.69551594770530322798,-0.38388248645820166605,0.12796640252664698290,-0.39416090047485813352,0.36461170360733530238,9.47076385129299325172,14.56169968931452629590,13.79606094759755130497,11.94640001033801013364,0.02800000000000000058,0.05999999999999999778,0.08799999999999999489,0.05199999999999999761,0.04000000000000000083,0.04117647058823529355,0.08951098511693833526,0.13153791637136783010,0.07675407512402551702,0.05953224663359319574,0.15599999999999999978,0.09600000000000000200,-0.00800000000000000017,0.04399999999999999745,0.08399999999999999134,0.23238837703756198838,0.14287739192062365312,-0.01133947554925584730,0.06541459957476966625,0.12494684620836286892,-0.48229969211732592882,-0.00533944731400866172,-0.11768798850999055705,0.02502329744749001716
19,19_2,107,63,,,,108.69565217391304656758,69.00000000000000000000,0.97852795670241088377,0.00000000000000000000,0.91176660481610538600,32.00000000000000000000,0.94210598280773183433,17.00000000000000000000,0.78513812995531329086,11.00000000000000000000,0.74198917396116470524,6.00000000000000000000,1.36363636363636353543,0.68181818181818176772,0.68181818181818154567,0.68181818181818198976,1.59090909090909127244,0.86206896551724132571,0.68965517241379314939,0.51724137931034464000,0.86206896551724165878,2.41379310344827624490,1.03448275862068883590,0.68965517241379326041,0.51724137931034497306,0.68965517241379326041,1.72413793103448331756,22.00000000000000000000,0.00000000000000000000,0.45454545454545453032,1.36363636363636309135,1.13636363636363668661,2.04545454545454585826,1.72413793103448265143,5.17241379310344839837,2.75862068965517126529,0.34482758620689663021,0.00000000000000000000,0.00000000000000000000,0.00000000000000000000,0.00000000000000000000,0.00000000000000000000,0.00000000000000000000,10.00000000000000000000,2.04545454545454541417,0.22727272727272726516,0.45454545454545436378,0.45454545454545464134,1.81818181818181856535,0.00000000000000000000,0.34482758620689657469,1.20689655172413745632,3.10344827586206939429,3.44827586206896663512,1.72413793103448131916,0.17241379310344831510,0.00000000000000000000,0.00000000000000000000,0.00000000000000000000,3.00000000000000000000,1.59090909090909082835,0.90909090909090906063,0.45454545454545436378,0.90909090909090928267,1.13636363636363668661,0.00000000000000000000,0.00000000000000000000,0.00000000000000000000,0.00000000000000000000,0.68965517241379326041,3.27586206896551423995,2.75862068965517304164,2.58620689655172464327,0.68965517241379326041,0.00000000000000000000,0.00000000000000000000,1.13636363636363646457,0.45454545454545453032,1.13636363636363602048,1.13636363636363668661,1.13636363636363668661,0.00000000000000000000,0.00000000000000000000,0.00000000000000000000,0.51724137931034497306,3.27586206896551779266,3.79310344827585854688,2.24137931034482829062,0.17241379310344831510,0.00000000000000000000,0.00000000000000000000,16.00000000000000000000,0.03241830036944811505,-0.03948916772165481093,-0.15558152917943465776,-0.23404295023189006231,-0.20091981118836022002,-0.09777805998752213401,-0.00988562700639742352,-0.03427862400336145060,-0.00687575953390144688,0.01999211067756846705,0.08338306321716619507,0.14506568690709600866,0.20437679217953505506,0.24784733810582734725,0.27658478108523065764,0.29381356842135075702,0.31265087582802669752,0.33279652505690648923,0.36135268515714558113,0.39935554143079859957,0.45944208017651022580,0.52980383880228554272,0.61742054269551827073,0.69755220968998976616,0.82259171950628273695,0.29458921864641535171,0.53866666666666673802,0.14933333333333334569,0.38933333333333336457,0.06133333333333332998,0.07687860659361334115,0.21066666666666666874,-0.02754859020602533001,0.32266666666666665719,0.42769094263977686099,-0.00752781526624657360,0.17333333333333333925,0.21599999999999996980,2.11230932111043445687,0.27673172598545736633,0.72326827401454263367,0.11415996938384997961,0.39025203652069323512,0.59836531627576405867,0.32163359029030674785,0.40163468372423599684,0.10399999999999999523,0.19266852550434640512,0.30400000000000004796,0.56326061997703791295,0.40799999999999997380,0.75592914548138434583,2.93333333333333357018,0.08000000000000000167,0.14807282269968838340,0.17600000000000001754,0.32617680826636052949,0.25600000000000000533,0.47424963096604888513,2.25000000000000000000,0.05866666666666666557,0.10845224427313977789,0.09066666666666667318,0.16803345907823519223,0.14933333333333331794,0.27648570335137495624,1.56613756613756627267,0.84601262301523638687,6.73666147638801238173,13.27474906966443768397,6.90812107877814174373,7.58267409940324910167,20.18287014844257853952,0.11873337211029864890,0.88126662788970133722,0.66622760127996327739,0.33377239872003677812,0.27428228197945220268,0.72571771802054785283,0.07352562585628776015,0.53358784558874683412,0.01399961061397197136,-0.01060298190267724115,-0.00346611818767291390,-0.00485411296131495629,0.00382861105217239617,0.09332613838216992364,0.70510692259876028842,0.82474978659798381386,0.76926997661861273858,0.49005014870693569540,-0.75570937650086789095,-0.25153592772416261125,-0.35008434037950064699,0.27476474458039984450,11.78036350674869403576,13.37066224683162296571,12.12405368936840943661,8.41665843089312382119,0.00800000000000000017,0.07733333333333332338,0.06400000000000000133,0.03200000000000000067,0.08800000000000000877,0.01523153463451971078,0.14257831720518288066,0.11950139412825981633,0.05793559674156689016,0.16482969766551855417,0.14133333333333333859,0.06400000000000000133,0.00000000000000000000,0.03200000000000000067,0.11999999999999999556,0.26150019135093760525,0.11892187414575473847,0.00057951998250505823,0.05851511672407194720,0.22334481438959050137,-0.42885385297760453271,-0.00619916059200404865,-0.15408910839720463271,0.01137016414796208387
19,19_3,107,63,,,,65.21739130434782794055,115.00000000000000000000,0.97367552664545742314,1.00000000000000000000,0.85084938309640989473,77.00000000000000000000,0.76436193851854505876,13.00000000000000000000,0.77220905106230353088,10.00000000000000000000,0.75422172637917750393,6.00000000000000000000,1.73913043478260864738,0.65217391304347827052,0.65217391304347804848,0.65217391304347838155,1.30434782608695676309,0.00000000000000000000,1.22807017543859653408,1.57894736842105221086,1.40350877192982470554,0.87719298245614063525,1.40350877192982337327,1.40350877192982470554,0.52631578947368429233,0.52631578947368429233,1.05263157894736858466,23.00000000000000000000,0.00000000000000000000,0.21739130434782608092,1.95652173913043414544,2.17391304347826164189,0.65217391304347838155,0.00000000000000000000,2.45614035087719306816,4.91228070175438435996,2.63157894736842168371,0.00000000000000000000,0.00000000000000000000,0.00000000000000000000,0.00000000000000000000,0.00000000000000000000,0.00000000000000000000,14.00000000000000000000,1.08695652173913037686,0.65217391304347827052,2.17391304347826030963,1.08695652173913082095,0.00000000000000000000,0.00000000000000000000,0.17543859649122806044,2.28070175438596400852,4.73684210526315929712,1.92982456140350921991,0.87719298245613963605,0.00000000000000000000,0.00000000000000000000,0.00000000000000000000,0.00000000000000000000,5.00000000000000000000,0.21739130434782608092,1.08695652173913037686,3.47826086956521596250,0.21739130434782613643,0.00000000000000000000,0.00000000000000000000,0.00000000000000000000,0.00000000000000000000,0.00000000000000000000,1.92982456140350921991,4.73684210526315396805,2.45614035087719351225,0.35087719298245617638,0.35087719298245617638,0.17543859649122808819,79.00000000000000000000,0.21739130434782608092,1.95652173913043481157,2.60869565217391219392,0.21739130434782613643,0.00000000000000000000,0.00000000000000000000,0.00000000000000000000,0.70175438596491201970,2.45614035087719351225,3.33333333333333392545,1.75438596491227927210,0.87719298245614063525,0.70175438596491235277,0.17543859649122808819,0.00000000000000000000,79.00000000000000000000,0.03607487093482344281,0.00668724194163328872,-0.07056103419458355230,-0.16638394483204407837,-0.19245064215661125684,-0.11294401051064198449,-0.01091634576755275143,-0.02488980708284986576,0.02174382429143210255,0.09734770997863829989,0.16844110955643937233,0.20122331733912041107,0.19364538687351340318,0.19973436849217507394,0.22125878360032372183,0.26005674758797708845,0.32511098839154412010,0.38921178243440368583,0.43821492044503707053,0.48898709723625605195,0.51983146732947571600,0.58018926831217609852,0.62997742044002957851,0.65329191962831445473,0.70955311500390827462,0.32896910915284138799,0.98399999999999998579,0.30399999999999999245,0.67999999999999993783,0.17200000000000001399,0.05980227657416886666,0.40400000000000002576,-0.02134639212361399974,0.51600000000000001421,0.64073120037995956455,-0.00159939947826226447,0.21200000000000002176,0.46799999999999997158,1.47069166411235263681,0.30268532779749546258,0.69731467220250453742,0.16630951583740710698,0.40517645483158104547,0.51861648697515572159,0.21593115917766020351,0.48138351302484427841,0.16800000000000001044,0.17297261099578115084,0.61199999999999998845,0.63433335565526016708,0.78000000000000002665,0.80730596665104137344,3.64285714285714279370,0.12800000000000000266,0.13178865599678563081,0.36399999999999999023,0.37149266724703677856,0.49199999999999999289,0.50328132324382246487,2.84375000000000000000,0.09600000000000000200,0.09884149199758923698,0.12800000000000000266,0.13178865599678563081,0.22400000000000000466,0.23063014799437486779,1.33333333333333325932,2.48539410064821275625,11.15589364979246056464,18.62720256974982646625,19.71076721865562575431,13.64128775044067332090,38.33796978840545222056,0.15732367919658743483,0.84267632080341248191,0.48491286448894166394,0.51508713551105833606,0.26142597475234324866,0.73857402524765669583,0.20356797293996170550,0.54616912787772986526,0.00628573341933424436,-0.00629812643819099849,-0.00082523612719564987,-0.00323022586693050284,0.00316409027370018192,0.15805880168408659170,0.74451024128595899576,0.91082164529790210494,0.88510386281997421865,0.69572342938654074818,-1.16236819532209167960,-0.17147253572829232460,-0.60539522944218582268,0.62233365072740531865,88.67013561118780273773,106.11760530122970180855,102.63603703222202057077,80.62960409139198247885,0.02400000000000000050,0.17199999999999998623,0.13600000000000000977,0.01600000000000000033,0.08000000000000000167,0.02752293577981651529,0.16349695305698788705,0.14002544699658475702,0.01647358199959820385,0.08236790999799102619,0.28000000000000002665,0.10799999999999999878,0.02800000000000000058,0.04399999999999999745,0.12399999999999999911,0.27516239201767900280,0.11166543896069108799,0.02836000803589365862,0.04483359003549186594,0.12720150003348290602,-1.00783408087901893424,-0.00303713343437975354,-0.38550043015161361559,0.00806534165007349348
19,19_1,107,63,,,,94.93670886075949510996,79.00000000000000000000,0.98368813348622230475,79.00000000000000000000,0.91448926125089913253,34.00000000000000000000,0.89699798026543442475,15.00000000000000000000,0.74490417541215858677,9.00000000000000000000,0.75156532444492318845,5.00000000000000000000,1.66666666666666674068,0.62500000000000000000,0.62499999999999977796,0.62500000000000011102,1.45833333333333370341,1.78571428571428580945,1.25000000000000000000,1.07142857142857095276,1.25000000000000022204,0.89285714285714312677,0.71428571428571363544,0.53571428571428580945,0.53571428571428580945,0.53571428571428580945,1.42857142857142882519,24.00000000000000000000,0.00000000000000000000,0.83333333333333337034,1.24999999999999955591,1.25000000000000022204,1.66666666666666696273,1.78571428571428580945,3.39285714285714279370,4.46428571428571263624,0.35714285714285720630,0.00000000000000000000,0.00000000000000000000,0.00000000000000000000,0.00000000000000000000,0.00000000000000000000,0.00000000000000000000,12.00000000000000000000,1.45833333333333325932,0.41666666666666668517,0.41666666666666651864,1.45833333333333370341,1.25000000000000022204,0.00000000000000000000,0.17857142857142857539,0.71428571428571407953,2.32142857142857206298,4.82142857142857206298,1.07142857142857050867,0.89285714285714312677,0.00000000000000000000,0.00000000000000000000,0.00000000000000000000,8.00000000000000000000,1.04166666666666674068,0.62500000000000000000,0.83333333333333303727,1.87500000000000022204,0.62500000000000011102,0.00000000000000000000,0.00000000000000000000,0.00000000000000000000,0.00000000000000000000,0.71428571428571441260,3.74999999999999644729,3.92857142857142971337,1.42857142857142882519,0.17857142857142860315,0.00000000000000000000,6.00000000000000000000,0.83333333333333337034,0.62500000000000000000,2.70833333333333214910,0.62500000000000011102,0.20833333333333337034,0.00000000000000000000,0.00000000000000000000,0.35714285714285703977,0.89285714285714312677,3.03571428571428603149,3.21428571428571130397,1.78571428571428625354,0.71428571428571441260,0.00000000000000000000,0.00000000000000000000,19.00000000000000000000,0.04133121614115781162,0.02383742536394142450,-0.05212411549131049093,-0.15158650033649900823,-0.16387996363335458061,-0.08942079762579749347,-0.01343352994712060031,-0.04892578218663633238,-0.03090957574456856122,0.00106058904461345162,0.07305507806869149245,0.16824560854901449147,0.26249373996062563830,0.33232531136459453336,0.38530743935397981925,0.41640092696491870505,0.46043792249399051464,0.50953750134524999904,0.57370849247440025565,0.63041317218254389054,0.69601321487715206437,0.75610584664230540142,0.82027983412551308540,0.87907950309574522940,0.95864016807108254348,0.22317276365913593650,0.68000000000000004885,0.21599999999999999756,0.46399999999999996803,0.11200000000000000233,0.06470415713650640166,0.31600000000000000311,-0.03145101976042125047,0.43599999999999999867,0.36593768668273168876,-0.01050412896818267439,0.22000000000000000111,0.24399999999999999467,2.42032484753323462456,0.31764705882352939348,0.68235294117647060652,0.16470588235294120194,0.46470588235294119084,0.64117647058823523665,0.32352941176470589868,0.35882352941176470784,0.13600000000000000977,0.20000000000000001110,0.30799999999999999600,0.45294117647058823595,0.44400000000000000577,0.65294117647058824705,2.31403508771929811161,0.10400000000000000910,0.15294117647058824705,0.16799999999999998268,0.24705882352941177516,0.27200000000000001954,0.40000000000000002220,1.63095238095238093123,0.07599999999999999811,0.11176470588235293269,0.09600000000000000200,0.14117647058823529216,0.17199999999999998623,0.25294117647058822484,1.26666666666666660745,1.73917629982137689204,8.53763615917193163796,16.17600532598137874629,4.50263252905164979012,10.27681245899330875204,20.67863785503302409552,0.16610235842771464698,0.83389764157228529751,0.78413571414462235332,0.21586428585537770219,0.33283219172838185429,0.66716780827161814571,0.34544067231290276343,0.58290539640544625222,0.00649433672610042617,-0.00765464462349851882,-0.00194796463223806393,-0.00332497201696640987,0.00324404939681055549,0.15140320829279413362,0.78123377104150115713,0.82825878909603845024,0.78859030086832038187,0.52000293136789377257,-1.52027649631798311702,-0.44393221806199190116,-0.77442166372691567666,0.63795266589725152517,5.52307929667497710113,5.95706030959173826744,5.66465617884488370493,3.82851283691470278825,0.02800000000000000058,0.11599999999999999201,0.10400000000000000910,0.01600000000000000033,0.08000000000000000167,0.04117647058823529355,0.17058823529411765163,0.15294117647058824705,0.02352941176470588203,0.11764705882352941013,0.18800000000000000044,0.07199999999999999456,0.03200000000000000067,0.04800000000000000100,0.12800000000000000266,0.27647058823529413463,0.10588235294117648300,0.04705882352941176405,0.07058823529411764608,0.18823529411764705621,-0.93987528042632684233,-0.00396138641017942505,-0.30192261452907542818,0.01940308603804154555
23,23_1,95,57,,,,90.36144578313253816759,83.00000000000000000000,0.97228499542261415112,0.00000000000000000000,0.88434934257858410778,33.00000000000000000000,0.83770850042170452721,15.00000000000000000000,0.74979119446015585204,10.00000000000000000000,0.76816762315542497230,6.00000000000000000000,1.75000000000000000000,0.50000000000000000000,0.49999999999999983347,0.75000000000000022204,1.50000000000000044409,1.00000000000000000000,1.66666666666666674068,1.16666666666666629659,1.00000000000000022204,1.50000000000000022204,0.83333333333333259318,0.50000000000000011102,0.50000000000000011102,0.50000000000000011102,1.33333333333333348136,20.00000000000000000000,0.00000000000000000000,1.00000000000000000000,1.24999999999999955591,1.00000000000000022204,1.75000000000000044409,2.00000000000000000000,3.66666666666666651864,4.16666666666666518637,0.16666666666666668517,0.00000000000000000000,0.00000000000000000000,0.00000000000000000000,0.00000000000000000000,0.00000000000000000000,0.00000000000000000000,10.00000000000000000000,1.75000000000000000000,0.50000000000000000000,0.24999999999999991673,1.00000000000000022204,1.50000000000000044409,0.00000000000000000000,0.33333333333333331483,0.33333333333333320381,1.66666666666666718477,5.50000000000000088818,1.66666666666666518637,0.50000000000000011102,0.00000000000000000000,0.00000000000000000000,0.00000000000000000000,6.00000000000000000000,1.00000000000000000000,0.75000000000000000000,0.49999999999999983347,1.25000000000000044409,1.50000000000000044409,0.00000000000000000000,0.00000000000000000000,0.00000000000000000000,0.00000000000000000000,0.66666666666666674068,2.83333333333333081683,4.00000000000000088818,1.83333333333333370341,0.66666666666666674068,0.00000000000000000000,4.00000000000000000000,0.75000000000000000000,0.25000000000000000000,1.49999999999999955591,1.75000000000000044409,0.75000000000000022204,0.00000000000000000000,0.00000000000000000000,0.16666666666666660190,1.83333333333333370341,2.83333333333333392545,2.99999999999999733546,2.00000000000000044409,0.16666666666666668517,0.00000000000000000000,0.00000000000000000000,16.00000000000000000000,0.00306691304917175618,-0.04998188443950919713,-0.15376228641527925345,-0.24995764241009693629,-0.22594846814782831856,-0.11735682473380489033,-0.00858435337339835333,-0.02146797604558186787,-0.00108731302822838785,0.05619544006146384718,0.14608227942749263395,0.23467388058330196365,0.30728929837848212303,0.33798522042377865393,0.35852400961034830429,0.36932417407004564103,0.42005285268496173057,0.47392603533904675839,0.54348452303098693239,0.60982712498730595740,0.65873817892106267813,0.70495094507615629897,0.75441439698754642063,0.79378279400190066006,0.85205400767766270587,0.29584268355744369750,0.70399999999999995914,0.17599999999999998979,0.52800000000000002487,0.07999999999999998779,0.08444227790700675751,0.28000000000000002665,-0.03388263721968792774,0.39600000000000001865,0.45867567204354642296,-0.00615874775589173029,0.22000000000000000111,0.30799999999999999600,2.13610560816681616103,0.25029088558500323103,0.74970911441499676897,0.11415643180349063779,0.39857789269553978162,0.56257272139625080776,0.31228183581124757673,0.43742727860374919224,0.11599999999999999201,0.16477052359405300330,0.34399999999999997247,0.48842921784098258797,0.45999999999999996447,0.65319974143503556352,2.96428571428571441260,0.08799999999999999489,0.12475759534583064081,0.18800000000000000044,0.26677440206851976701,0.27600000000000002309,0.39153199741435035230,2.14166666666666660745,0.06400000000000000133,0.09062702003878474188,0.10399999999999999523,0.14789915966386554813,0.16799999999999998268,0.23852617970265027614,1.65079365079365070201,1.12060978190982596381,8.64662502934676879818,19.11271791265453146025,8.62793250717328064070,9.76723481125659631630,27.74065041982781210095,0.11639944997404122473,0.88360055002595883078,0.69096039367975925494,0.30903960632024074506,0.26072759341244278186,0.73927240658755732916,0.34230442835878116536,0.55473206563163013350,0.01174234202078656975,-0.01178633008423007889,-0.00026994514644423928,-0.00436931815890051478,0.00401468547620412175,0.13803658498037180147,0.88245976290709648993,0.93612549031448377690,0.87765289851015459988,0.48380694702975224342,-1.03869396786403633826,-0.03899397278144825507,-0.37782428256648403764,0.36002903265889940609,21.42547065125093297411,21.52200803785125415857,20.04531567071753173082,11.76528226205894966938,0.02400000000000000050,0.09199999999999999845,0.08399999999999999134,0.02800000000000000058,0.12399999999999999911,0.03529411764705882304,0.12947640594699416638,0.11926308985132513807,0.04001292824822236249,0.17692307692307693290,0.15199999999999999623,0.05999999999999999778,0.02400000000000000050,0.05200000000000000455,0.17599999999999998979,0.21499676793794442187,0.08552036199095022773,0.03374272786037492422,0.07375565610859728671,0.25067873303167420573,-0.98190474517500336837,-0.00465006143507070042,-0.62187571251610407330,0.01396627245361275159
23,23_2,95,57,,,,86.20689655172412813045,87.00000000000000000000,0.96393839049244345318,79.00000000000000000000,0.88037573993360140889,33.00000000000000000000,0.83854491751722692872,17.00000000000000000000,0.83050359815784280393,11.00000000000000000000,0.74973601846702275786,9.00000000000000000000,1.50000000000000000000,0.75000000000000000000,0.49999999999999983347,0.75000000000000022204,1.50000000000000044409,1.50000000000000000000,1.00000000000000000000,0.99999999999999966693,1.16666666666666696273,1.83333333333333370341,0.83333333333333259318,0.50000000000000011102,0.50000000000000011102,0.66666666666666674068,1.00000000000000022204,20.00000000000000000000,0.00000000000000000000,1.00000000000000000000,0.99999999999999966693,1.25000000000000044409,1.75000000000000044409,2.33333333333333348136,5.33333333333333303727,2.33333333333333259318,0.00000000000000000000,0.00000000000000000000,0.00000000000000000000,0.00000000000000000000,0.00000000000000000000,0.00000000000000000000,0.00000000000000000000,10.00000000000000000000,1.75000000000000000000,0.25000000000000000000,0.49999999999999983347,0.75000000000000022204,1.75000000000000044409,0.00000000000000000000,0.33333333333333331483,0.33333333333333320381,1.00000000000000022204,5.33333333333333392545,2.66666666666666429819,0.33333333333333337034,0.00000000000000000000,0.00000000000000000000,0.00000000000000000000,6.00000000000000000000,1.25000000000000000000,0.50000000000000000000,0.99999999999999966693,1.50000000000000044409,0.75000000000000022204,0.00000000000000000000,0.00000000000000000000,0.00000000000000000000,0.00000000000000000000,0.00000000000000000000,2.99999999999999733546,4.50000000000000088818,1.66666666666666718477,0.66666666666666674068,0.16666666666666668517,79.00000000000000000000,0.50000000000000000000,1.25000000000000000000,0.99999999999999966693,1.25000000000000044409,1.00000000000000022204,0.00000000000000000000,0.00000000000000000000,0.16666666666666660190,1.16666666666666696273,2.50000000000000044409,2.99999999999999733546,2.00000000000000044409,0.83333333333333359239,0.33333333333333337034,0.00000000000000000000,15.00000000000000000000,-0.00603606819167105523,-0.05188116741363138495,-0.13509314474039094134,-0.22206487784289752341,-0.21880212544020999355,-0.12712978146616607522,-0.01144720288343904074,-0.01760126432750612133,0.00920786283690626546,0.06057462056620807611,0.13681408422822102788,0.22593571744737145357,0.28528134187690462609,0.33080721600101004043,0.34635387025988295662,0.36842998110210090079,0.37761534271657248851,0.40174015825527387147,0.44991307504759681102,0.53209141253353464673,0.60593316137023411905,0.68900848567270434053,0.76234500510071745438,0.85108942453664226946,0.91494472932149051303,0.30985860990781655122,0.72399999999999997691,0.17599999999999998979,0.54800000000000004263,0.07999999999999998779,0.06713823914656580349,0.24399999999999999467,-0.02408748060197918317,0.36399999999999999023,0.47874297637932783367,-0.00568522036064736391,0.18800000000000000044,0.35999999999999998668,1.82040429246617607717,0.24345805820494009764,0.75654194179505984685,0.11109073123012962181,0.33859134262655904424,0.50415749572022505731,0.26069943751528490417,0.49584250427977499820,0.11599999999999999201,0.16024700415749570936,0.38800000000000001155,0.53778429933969185139,0.50400000000000000355,0.69803130349718756076,3.35476190476190483380,0.08799999999999999489,0.12130105160185863933,0.25200000000000000178,0.35051357300073371359,0.33999999999999996891,0.47181462460259232516,2.92499999999999982236,0.05999999999999999778,0.08278307654683296490,0.10400000000000000910,0.14343360234776228457,0.16399999999999997913,0.22621667889459526335,1.73214285714285720630,1.02731438311551648290,7.22283906330837233156,14.49568031126406353337,9.77708089509514621795,8.25015344642388726015,24.27276120635920975133,0.12274230813580058741,0.87725769186419944035,0.59965034682715301351,0.40034965317284698649,0.25152080459810832735,0.74847919540189167265,0.28033865574804167631,0.54081382106591990855,0.00616817179663037285,-0.00830818941876443340,-0.00136640092158413218,-0.00437661517699439173,0.00445763110588998090,0.14097443814593071942,0.74966393748835180588,0.82241974922572413931,0.76838418723291779244,0.48503457200937782900,-2.45941232178547508624,-0.22948972564933145524,-1.17214284382976119403,1.27338298688498752220,5.63609809582796472682,6.15798859636155704322,5.68897738530044083660,3.59593546441919942325,0.01200000000000000025,0.10000000000000000555,0.08799999999999999489,0.02400000000000000050,0.11599999999999999201,0.01595744680851063704,0.13897040841281488310,0.12258498410369284004,0.03362680361946686347,0.15981902665688432763,0.16399999999999997913,0.06400000000000000133,0.02400000000000000050,0.04800000000000000100,0.16399999999999997913,0.22750061139642946406,0.08853020298361458096,0.03405478112007825908,0.06768158473954512255,0.22750061139642946406,-2.33116273919136940407,-0.00469448582186745862,-1.05777975230638210391,0.02182152694196042020
23,23_3,95,57,,,,89.28571428571429180465,84.00000000000000000000,0.95465465405084892758,1.00000000000000000000,0.88495375642656914916,29.00000000000000000000,0.85146422488763007230,18.00000000000000000000,0.88456898824766116984,12.00000000000000000000,0.75315593268278058225,8.00000000000000000000,1.84210526315789469010,0.52631578947368418131,0.52631578947368407029,0.78947368421052654952,1.31578947368421084185,1.47540983606557385421,1.14754098360655731881,0.98360655737704882906,1.31147540983606569753,2.13114754098360714707,0.65573770491803218263,0.49180327868852469209,0.49180327868852469209,0.49180327868852469209,0.81967213114754122749,19.00000000000000000000,0.00000000000000000000,0.78947368421052632748,1.05263157894736814058,1.05263157894736858466,2.10526315789473716933,1.80327868852459016757,3.44262295081967195642,3.93442622950819531624,0.81967213114754122749,0.00000000000000000000,0.00000000000000000000,0.00000000000000000000,0.00000000000000000000,0.00000000000000000000,0.00000000000000000000,11.00000000000000000000,1.57894736842105265495,0.26315789473684209065,0.26315789473684203514,1.31578947368421084185,1.57894736842105309904,0.32786885245901636887,0.16393442622950818444,0.32786885245901625785,0.32786885245901642438,5.24590163934426279013,2.29508196721311286126,1.31147540983606569753,0.00000000000000000000,0.00000000000000000000,0.00000000000000000000,6.00000000000000000000,1.31578947368421061981,0.78947368421052632748,0.52631578947368407029,1.05263157894736858466,1.31578947368421084185,0.00000000000000000000,0.00000000000000000000,0.00000000000000000000,0.00000000000000000000,0.00000000000000000000,1.47540983606557229990,5.24590163934426279013,1.80327868852459061166,1.47540983606557407626,0.00000000000000000000,0.00000000000000000000,0.52631578947368418131,1.05263157894736836262,1.57894736842105198882,0.78947368421052654952,1.05263157894736858466,0.00000000000000000000,0.00000000000000000000,0.00000000000000000000,0.00000000000000000000,3.60655737704918122333,4.59016393442622572252,0.98360655737704938417,0.81967213114754122749,0.00000000000000000000,0.00000000000000000000,15.00000000000000000000,-0.00511445969749663165,-0.04022774054979900288,-0.13315676333579212764,-0.21853570386909015877,-0.23881339479635882439,-0.15530745768680789820,-0.01520843008948614093,-0.00270687584805572382,0.05780373005761188510,0.15368210650122865468,0.24209738552213039275,0.32167282447241352106,0.35862827831287336089,0.37904072322831239283,0.37277213386190066746,0.38026930331511210603,0.39348627619137610534,0.44477408610592250593,0.48931798866088138666,0.56222537785442394664,0.62243409197124632826,0.70031262474443145560,0.75804516483783701553,0.84016977443643936496,0.90412880356130576054,0.30872499561442612315,0.69999999999999995559,0.16399999999999997913,0.53600000000000003197,0.08399999999999999134,0.08492791194040533176,0.22800000000000000822,-0.03358143104797900458,0.40000000000000002220,0.41517746629731649977,-0.00233826974687539879,0.23599999999999998757,0.30000000000000004441,2.32938056850204189274,0.23402304871660556396,0.76597695128339449155,0.11943425877422733650,0.32628339444735465769,0.57176532215819797500,0.33774227344159246655,0.42823467784180202500,0.09600000000000000200,0.13750654793085384520,0.36799999999999999378,0.52651911995809319578,0.46399999999999996803,0.66402566788894712424,3.83333333333333303727,0.07199999999999999456,0.10312991094814039084,0.15599999999999999978,0.22256416972236772733,0.22799999999999998046,0.32569408067050809041,2.16666666666666696273,0.04800000000000000100,0.06875327396542692260,0.07599999999999999811,0.10856469355683603939,0.12399999999999999911,0.17731796752226297587,1.58333333333333348136,1.10824487429201878896,6.82679126039415429261,17.98108995205416604790,7.56383157520129500995,7.93503613468617263749,25.54492152725546105785,0.13984924068206927572,0.86015075931793072428,0.70383271601240271487,0.29616728398759717411,0.23692954661319506893,0.76307045338680490332,0.42904734779298081548,0.47784932842632815708,0.01354691356789216455,-0.01148615219184839775,0.00015808215950818827,-0.00135961076421092786,0.00385283044348602721,0.19447871950058426282,0.88193364699147303032,0.75196645242350856897,0.68734643767679926007,0.51616534749219722400,-0.84884455439659856069,0.01269935167236955695,-0.09635671337557122351,0.28400204165090847663,4.72578942851544603343,4.06743714835331715562,3.71529198602442800592,2.78680397847563066094,0.04000000000000000083,0.07599999999999999811,0.10799999999999999878,0.01600000000000000033,0.05200000000000000455,0.05611576741749607633,0.10915400733368255115,0.15381089575694079086,0.02291775798847564202,0.07418805657412258503,0.12399999999999999911,0.04800000000000000100,0.05999999999999999778,0.07599999999999999811,0.12800000000000000266,0.17790728129910948763,0.06875327396542692260,0.08505762179151388214,0.10797537977998952763,0.18216343635411208490,-1.04918923434430544361,-0.00522899774918334122,-0.76518719269339685596,0.08584800001030758188
29,29_2,129,81,,,,92.02453987730061157890,81.50000000000000000000,0.96290131699565295609,0.00000000000000000000,0.91467564349663044165,28.00000000000000000000,0.93146314060929469303,17.00000000000000000000,0.81520588771329616229,10.00000000000000000000,0.54731267872584021816,3.00000000000000000000,1.59090909090909082835,0.68181818181818176772,0.68181818181818154567,0.45454545454545464134,1.59090909090909127244,1.72413793103448265143,1.03448275862068972408,1.03448275862068927999,0.86206896551724165878,1.89655172413793149389,0.68965517241379248325,0.68965517241379326041,0.51724137931034497306,0.51724137931034497306,1.03448275862068994613,22.00000000000000000000,0.00000000000000000000,0.45454545454545453032,1.36363636363636309135,0.90909090909090928267,2.27272727272727337322,1.89655172413793104980,3.96551724137931049796,3.96551724137930872160,0.17241379310344831510,0.00000000000000000000,0.00000000000000000000,0.00000000000000000000,0.00000000000000000000,0.00000000000000000000,0.00000000000000000000,11.00000000000000000000,1.36363636363636353543,0.45454545454545453032,0.45454545454545436378,0.68181818181818198976,2.04545454545454585826,0.00000000000000000000,0.51724137931034486204,0.51724137931034464000,0.68965517241379326041,1.20689655172413812245,4.13793103448275534362,2.93103448275862099592,0.00000000000000000000,0.00000000000000000000,0.00000000000000000000,5.00000000000000000000,1.36363636363636353543,0.90909090909090906063,0.90909090909090872756,1.13636363636363668661,0.68181818181818198976,0.00000000000000000000,0.00000000000000000000,0.34482758620689640816,0.34482758620689663021,1.03448275862068994613,2.06896551724137767181,2.75862068965517304164,2.58620689655172464327,0.68965517241379326041,0.17241379310344831510,1.00000000000000000000,0.90909090909090906063,2.27272727272727292913,0.90909090909090872756,0.68181818181818198976,0.22727272727272732067,0.00000000000000000000,0.51724137931034486204,0.17241379310344820408,1.37931034482758652082,3.96551724137931138614,1.55172413793103292079,1.37931034482758652082,0.68965517241379326041,0.34482758620689663021,0.00000000000000000000,18.00000000000000000000,0.02397200889984869854,-0.03059204056466215127,-0.12588207912788779153,-0.21129964372860682298,-0.19831179201240861643,-0.10484093833500179871,-0.00661712875049664390,-0.01429211879258585928,0.04681959763632503879,0.10922837022111574201,0.19039929230331351095,0.23981449849797575880,0.31193728825461669585,0.36453074986649158795,0.38382384794267676575,0.38819033317580997622,0.39957755896657354278,0.47392861725183632604,0.53507393475064801702,0.58820174245007583735,0.67116908335871405811,0.74535461803150071525,0.83640506697894190236,0.87843723541628937479,0.94961661029945432233,0.21321992380688992164,0.64800000000000002043,0.16799999999999998268,0.47999999999999998224,0.06800000000000000488,0.07507553483903761649,0.21599999999999999756,-0.03511328777575101201,0.35999999999999998668,0.41456146584005837408,-0.00266630543798779263,0.19200000000000000400,0.28799999999999997824,2.27342638659057305617,0.25911239896294036011,0.74088760103705963989,0.10484977886228458166,0.33323166082049715531,0.55528442885465922885,0.29617202989171875771,0.44471557114534088218,0.10799999999999999878,0.16661583041024857765,0.28800000000000003375,0.44441055360683234809,0.39600000000000001865,0.61102638401708098126,2.66758241758241787522,0.07999999999999998779,0.12322708555741955505,0.15599999999999999978,0.24043007472929692203,0.23599999999999998757,0.36365716028671646320,1.95454545454545458583,0.05200000000000000455,0.08014335824309898326,0.08000000000000000167,0.12353210309592801974,0.13200000000000000622,0.20367546133902697525,1.54761904761904767192,0.66789125359552525829,7.98382136243393514263,15.66784913319007799259,6.59316645332160788939,8.65171261602946017888,22.26101558651168588199,0.07753069767062450990,0.92246930232937551786,0.70369422475351406376,0.29630577524648588073,0.27978541551844610114,0.72021458448155395438,0.35774044445849573215,0.53869086652231490397,0.01230989110508238539,-0.00261072869596060131,0.00136621696020317041,-0.00874470125617093919,0.00910389968198632715,0.05073107651527380968,0.57804420645214449337,0.71756580555382643016,0.84763126344536110501,0.44044585880590558791,-0.21225252796894861218,0.11100255024058500175,-0.71059124464933320908,0.73956946050155869532,11.43043654760191429887,14.17910517063688047301,16.73581060425478028719,8.67723047398678559716,0.00800000000000000017,0.07200000000000000844,0.01600000000000000033,0.10400000000000000910,0.11999999999999999556,0.01204819277108433798,0.11148391032484368524,0.02470642061918560534,0.16028671648619796652,0.18529815464389204349,0.16000000000000000333,0.08799999999999999489,-0.07200000000000000844,0.03200000000000000067,0.15199999999999999623,0.24706420619185603949,0.13558029586701236813,-0.11087387524782674197,0.04941284123837121067,0.23471099588226324029,-0.35223329406175901690,-0.00672944931657611795,0.38733616643979967842,0.01376115608889717790
29,29_1,129,81,,,,102.73972602739725346055,73.00000000000000000000,0.96271374810232313024,0.00000000000000000000,0.90563472627977803509,33.00000000000000000000,0.87846968628909216648,18.00000000000000000000,0.77265548437106057467,12.00000000000000000000,0.56234719271624478143,10.00000000000000000000,1.81818181818181812126,0.68181818181818176772,0.45454545454545436378,0.68181818181818198976,1.36363636363636397952,0.51724137931034486204,1.72413793103448265143,1.72413793103448220734,1.37931034482758652082,1.55172413793103469715,0.51724137931034441795,0.34482758620689663021,0.34482758620689663021,0.51724137931034497306,1.37931034482758652082,22.00000000000000000000,0.00000000000000000000,0.45454545454545453032,1.36363636363636309135,1.36363636363636397952,1.81818181818181856535,1.55172413793103447510,0.86206896551724132571,6.37931034482758452242,1.03448275862068994613,0.17241379310344831510,0.00000000000000000000,0.00000000000000000000,0.00000000000000000000,0.00000000000000000000,0.00000000000000000000,12.00000000000000000000,1.36363636363636353543,0.45454545454545453032,0.22727272727272718189,0.90909090909090928267,2.04545454545454585826,0.17241379310344828735,0.17241379310344828735,1.03448275862068927999,0.68965517241379326041,3.44827586206896663512,2.75862068965516993302,0.86206896551724165878,0.86206896551724165878,0.00000000000000000000,0.00000000000000000000,8.00000000000000000000,0.90909090909090906063,0.45454545454545453032,1.36363636363636309135,1.81818181818181856535,0.45454545454545464134,0.00000000000000000000,0.00000000000000000000,0.00000000000000000000,0.34482758620689663021,0.86206896551724165878,2.58620689655172153465,2.24137931034482829062,1.89655172413793149389,1.89655172413793149389,0.17241379310344831510,79.00000000000000000000,0.68181818181818176772,0.68181818181818176772,2.49999999999999911182,0.68181818181818198976,0.45454545454545464134,0.00000000000000000000,0.00000000000000000000,1.20689655172413745632,2.24137931034482829062,1.37931034482758652082,2.06896551724137767181,2.24137931034482829062,0.86206896551724165878,0.00000000000000000000,0.00000000000000000000,16.00000000000000000000,0.03271570891268673481,-0.00412998229226735347,-0.07946544354095036455,-0.18332310063977261261,-0.19038707618019984347,-0.10242750905272031414,-0.00987267932316905628,-0.03354306505023101070,-0.00431056951784550627,0.05830598000473416476,0.18672252693283225566,0.30222135980776343445,0.38432565681959218740,0.40574582507647283247,0.41188118367017056975,0.43547206442749530897,0.48888393185596445978,0.52588887392552796651,0.56066800690252105444,0.57143156197474720415,0.61200808861031574803,0.66957261721651351039,0.71159065543584398839,0.73745757440932546700,0.80056171264120656872,0.27352598437599173753,0.58799999999999996714,0.15199999999999999623,0.43599999999999999867,0.07999999999999998779,0.07957736427778444588,0.24399999999999999467,-0.04438895627861738635,0.32000000000000000666,0.35071222849173050440,-0.00347000436853048266,0.16800000000000001044,0.26800000000000001599,2.41377163102014868912,0.25833951074870276088,0.74166048925129723912,0.13574870274277242577,0.41428836174944405624,0.54438472942920679287,0.28604521868050408751,0.45561527057079320713,0.08799999999999999489,0.14983320978502595588,0.27200000000000001954,0.45895107487027425597,0.35999999999999998668,0.60878428465530021185,3.09090909090909082835,0.06800000000000000488,0.11601186063750926203,0.17200000000000001399,0.28938102297998519186,0.23999999999999999112,0.40539288361749448164,2.59027777777777767909,0.04399999999999999745,0.07514825796886581699,0.08799999999999999489,0.14890659747961454418,0.13200000000000000622,0.22405485544848036117,2.04999999999999982236,0.90216989346006992712,5.04752115927225197822,12.20958050177756959442,6.73122157429636214232,5.94969105273232123920,18.94080207607392907221,0.15148500388059024657,0.84851499611940983669,0.65972649679216721630,0.34027350320783278370,0.24540357581921706798,0.75459642418078298753,0.44275135413691818487,0.51707160221010606271,0.00841630053381863669,-0.01239913399569458896,-0.00048975822714120154,-0.00652696257877133368,0.00868595580422115709,0.03737723344358546279,0.65471786241047436050,0.76585241522547464754,0.69790607100122326045,0.38852199029068590352,-1.48854042965101673879,-0.03522830433416136720,-0.79691958512936267311,1.07476294293862073559,26.30843806182042854402,32.20752803067735925424,29.68957820768687483337,18.30665865392773028475,0.00400000000000000008,0.09199999999999999845,0.08000000000000000167,0.02800000000000000058,0.07200000000000000844,0.00704225352112676072,0.15594885100074129536,0.13621200889547813162,0.04744255003706449036,0.12305411415863602709,0.14800000000000002043,0.05600000000000000117,0.02400000000000000050,0.05200000000000000455,0.12399999999999999911,0.25129725722757595419,0.09534840622683468658,0.04086360266864343810,0.08830615270570793540,0.21136026686434394861,-1.73115548312611355897,-0.00599855272182606494,-0.65639254018749271236,0.01888892857353127730
40,40_2,116,56,,,,83.79888268156423691835,89.50000000000000000000,0.95878319212682083794,1.00000000000000000000,0.84823511889040426048,32.00000000000000000000,0.85116535483202271362,18.00000000000000000000,0.86486743057653825417,13.00000000000000000000,0.65637275934173988645,11.00000000000000000000,1.94444444444444441977,0.55555555555555558023,0.55555555555555535818,0.55555555555555569125,1.38888888888888928363,0.00000000000000000000,0.00000000000000000000,1.93548387096774132665,4.67741935483871085211,0.48387096774193560922,0.48387096774193510962,0.48387096774193560922,0.48387096774193560922,0.48387096774193560922,0.96774193548387121844,18.00000000000000000000,0.00000000000000000000,1.38888888888888883955,0.83333333333333303727,1.11111111111111138250,1.66666666666666696273,2.58064516129032250902,0.80645161290322575631,4.99999999999999822364,1.61290322580645217876,0.00000000000000000000,0.00000000000000000000,0.00000000000000000000,0.00000000000000000000,0.00000000000000000000,0.00000000000000000000,10.00000000000000000000,1.38888888888888883955,0.27777777777777779011,0.27777777777777767909,1.66666666666666696273,1.38888888888888928363,0.00000000000000000000,0.32258064516129031363,0.16129032258064510130,0.32258064516129036914,2.25806451612903291704,4.83870967741935054107,2.09677419354838745491,0.00000000000000000000,0.00000000000000000000,0.00000000000000000000,6.00000000000000000000,0.83333333333333337034,0.55555555555555558023,0.55555555555555535818,1.11111111111111138250,1.94444444444444486386,0.00000000000000000000,0.00000000000000000000,0.00000000000000000000,0.00000000000000000000,0.00000000000000000000,0.48387096774193510962,2.74193548387096841523,5.64516129032258184850,0.64516129032258073828,0.48387096774193560922,4.00000000000000000000,1.11111111111111116045,0.83333333333333337034,1.38888888888888839546,1.11111111111111138250,0.55555555555555569125,0.00000000000000000000,0.00000000000000000000,0.00000000000000000000,0.48387096774193560922,2.90322580645161343327,3.70967741935483541482,2.09677419354838745491,0.80645161290322608938,0.00000000000000000000,0.00000000000000000000,14.00000000000000000000,0.01196426463752331935,-0.00470425075287968925,-0.09628911252962332745,-0.20778170826006323035,-0.24865448843812232305,-0.17265617044618766784,-0.00767414342628988666,0.01852705773955758833,0.07522136475653240506,0.16219805825492650264,0.25268658537095350924,0.36362561407712579165,0.45467150966791436417,0.51009766899317876554,0.51110234074704008478,0.48857432981677118011,0.45228783109952053199,0.44183787320301337598,0.43969146205307507724,0.46759154445332007377,0.49013610444393679311,0.52069591090204114803,0.53918840067417406203,0.57436297699195293376,0.59143331012119393364,0.39156563632571739220,0.80000000000000004441,0.16000000000000000333,0.64000000000000001332,0.08000000000000000167,0.09022544323855336001,0.31199999999999999956,-0.03109889345897243196,0.44000000000000000222,0.28128470065011834667,0.00540761768118613873,0.28000000000000002665,0.35999999999999998668,3.38946095025171523218,0.20000000000000001110,0.80000000000000004441,0.10000000000000000555,0.39000000000000001332,0.55000000000000004441,0.34999999999999997780,0.45000000000000001110,0.09600000000000000200,0.11999999999999999556,0.40000000000000002220,0.50000000000000000000,0.49599999999999999645,0.61999999999999999556,4.16666666666666696273,0.07199999999999999456,0.08999999999999999667,0.16000000000000000333,0.20000000000000001110,0.23200000000000001177,0.28999999999999998002,2.22222222222222232091,0.04800000000000000100,0.05999999999999999778,0.09600000000000000200,0.11999999999999999556,0.14399999999999998912,0.17999999999999999334,2.00000000000000000000,0.85874839719929552118,6.71001909356187020705,20.28962375735811107802,7.47198794839353830355,7.56876749076116617232,27.76161170575164760521,0.11345947649303915472,0.88654052350696077589,0.73085179536440636472,0.26914820463559369079,0.21422831180674731244,0.78577168819325260429,0.68141767805953756820,0.45186880492692232947,0.01329187640649523439,-0.01359310085142984015,-0.00063781946371954668,-0.00223530646555436530,0.00441796557276397106,0.17654528821681431117,0.86362730264159992544,0.83597722155225373530,0.81176353571010084753,0.27758275403414550686,-1.02266229655787421748,-0.04798566012905962352,-0.16817087348645945455,0.33238087969318458326,4.89181734253357092257,4.73519984586388176240,4.59804701620344857815,1.57230338366916733150,0.04000000000000000083,0.07199999999999999456,0.09600000000000000200,0.00800000000000000017,0.20000000000000001110,0.05000000000000000278,0.08999999999999999667,0.11999999999999999556,0.01000000000000000021,0.25000000000000000000,0.11999999999999999556,0.04800000000000000100,0.04800000000000000100,0.05600000000000000117,0.25600000000000000533,0.14999999999999999445,0.05999999999999999778,0.05999999999999999778,0.07000000000000000666,0.32000000000000000666,-1.13888664263553973655,-0.00565087513974762805,-0.80650576294235509778,0.02597385640917722338
40,40_3,116,56,,,,76.92307692307693400835,97.50000000000000000000,0.94916919694745272018,3.00000000000000000000,0.82940007759645550944,34.00000000000000000000,0.83393402284282092118,17.00000000000000000000,0.83804738553188007355,13.00000000000000000000,0.62085020447416461309,10.00000000000000000000,2.05882352941176449690,0.58823529411764707842,0.58823529411764685637,0.58823529411764718944,1.17647058823529437888,1.26984126984126977078,1.11111111111111116045,2.53968253968253865338,1.90476190476190532230,0.47619047619047633058,0.31746031746031716514,0.47619047619047633058,0.47619047619047633058,0.47619047619047633058,0.95238095238095266115,17.00000000000000000000,0.29411764705882353921,0.88235294117647056211,1.17647058823529371274,0.58823529411764718944,2.05882352941176494099,2.85714285714285720630,3.49206349206349209169,2.38095238095238004306,1.26984126984126999282,0.00000000000000000000,0.00000000000000000000,0.00000000000000000000,0.00000000000000000000,0.00000000000000000000,0.00000000000000000000,10.00000000000000000000,1.17647058823529415683,0.58823529411764707842,0.29411764705882342819,1.17647058823529437888,1.76470588235294156831,0.15873015873015872135,0.15873015873015872135,0.31746031746031733167,0.31746031746031749821,3.65079365079365159019,4.12698412698412298028,1.26984126984126999282,0.00000000000000000000,0.00000000000000000000,0.00000000000000000000,6.00000000000000000000,1.17647058823529415683,0.58823529411764707842,0.58823529411764685637,0.58823529411764718944,2.05882352941176494099,0.00000000000000000000,0.00000000000000000000,0.00000000000000000000,0.00000000000000000000,0.00000000000000000000,0.00000000000000000000,2.38095238095238137532,5.55555555555555624636,1.11111111111111138250,0.95238095238095266115,4.00000000000000000000,0.88235294117647056211,0.88235294117647056211,1.17647058823529371274,0.88235294117647078416,1.17647058823529437888,0.00000000000000000000,0.00000000000000000000,0.00000000000000000000,0.47619047619047633058,4.28571428571428647558,5.07936507936507464223,0.00000000000000000000,0.15873015873015874910,0.00000000000000000000,0.00000000000000000000,16.00000000000000000000,-0.00183859465603759820,-0.02153687950735655443,-0.11753833000885323401,-0.22405357457694885515,-0.26918583506105953074,-0.20204912463317448168,-0.02245157997867961927,-0.01167553612427814358,0.04750343626641350542,0.13464955839810335836,0.22871254232566518017,0.35532680195084631602,0.46669093301303266053,0.55864348362789284508,0.56862842617589626215,0.55025616259484388948,0.51330550967023325093,0.51666856456790055674,0.53205023847549104410,0.57643811261162447579,0.60572504714741182141,0.66975734412877785395,0.73415693635396750416,0.80508079999803139337,0.85304371494558406397,0.26830665200003317450,0.78000000000000002665,0.16800000000000001044,0.61199999999999998845,0.08799999999999999489,0.09000758468322289652,0.22799999999999998046,-0.02732770951547208726,0.43599999999999999867,0.28245158340288722965,0.00318466875572787078,0.26800000000000001599,0.34399999999999997247,3.41034213869761604343,0.21543560606060607743,0.78456439393939392257,0.11284722222222220989,0.29214015151515149160,0.55886994949494950280,0.34343434343434342537,0.44113005050505049720,0.09600000000000000200,0.12310606060606060774,0.39600000000000001865,0.50789141414141414366,0.49199999999999999289,0.63099747474747469589,4.12500000000000000000,0.07599999999999999811,0.09738005050505049720,0.15199999999999999623,0.19476010101010099440,0.22799999999999998046,0.29214015151515149160,2.00000000000000000000,0.05600000000000000117,0.07181186868686868785,0.08799999999999999489,0.11268939393939395033,0.14400000000000001688,0.18450126262626262430,1.57142857142857139685,1.17266415371400367640,7.13367644293434466363,19.36854518938791613891,8.08780825293199079340,8.30634059664834900616,27.45635344231990870867,0.14117290711773797240,0.85882709288226188882,0.70545880255364412648,0.29454119744635587352,0.23226287596071004682,0.76773712403929006420,0.70289389510602218181,0.44572716133283241113,0.01360177981769400413,-0.01160119913926832558,-0.00018510124652820759,-0.00178057899081973670,0.00530392836871310114,0.19629985700084109923,0.81986596236962860917,0.83464911064439351041,0.68320518519031792071,0.29279214519629148672,-0.84528777091595630466,-0.01707585588164504259,-0.13242362135394764033,0.38985068884797074995,4.42098719841416087917,4.35158695597919198406,3.44116184640475974987,1.54067076521676926681,0.04399999999999999745,0.06400000000000000133,0.10000000000000000555,0.04399999999999999745,0.12800000000000000266,0.05634469696969697516,0.08238636363636364646,0.12831439393939392257,0.05697601010101010360,0.16319444444444444753,0.12399999999999999911,0.05999999999999999778,0.04000000000000000083,0.08400000000000000522,0.21199999999999999400,0.15909090909090908839,0.07670454545454545581,0.05160984848484848758,0.10858585858585857731,0.27178030303030298320,-1.08563898252833435087,-0.00514919447039960659,-0.69578829368036365643,0.07437981278451891165
40,40_1,116,56,,,,76.53061224489795222325,98.00000000000000000000,0.95534103058193164948,1.00000000000000000000,0.83814230574999160073,33.00000000000000000000,0.79810897503628563943,17.00000000000000000000,0.75797889304503263119,12.00000000000000000000,0.63215149519141167200,9.00000000000000000000,1.66666666666666674068,0.71428571428571430157,0.71428571428571407953,0.47619047619047627506,1.42857142857142882519,0.00000000000000000000,0.50847457627118641810,1.52542372881355881020,1.35593220338983067030,3.22033898305084775870,0.84745762711864336403,0.50847457627118652912,0.50847457627118652912,0.67796610169491533515,0.84745762711864436323,21.00000000000000000000,0.23809523809523808202,0.95238095238095232808,1.19047619047619024357,1.66666666666666696273,0.95238095238095255013,2.71186440677966089652,4.57627118644067820696,2.71186440677966000834,0.00000000000000000000,0.00000000000000000000,0.00000000000000000000,0.00000000000000000000,0.00000000000000000000,0.00000000000000000000,0.00000000000000000000,12.00000000000000000000,1.42857142857142860315,0.71428571428571430157,0.71428571428571407953,1.66666666666666696273,0.47619047619047627506,0.00000000000000000000,0.16949152542372880603,0.33898305084745750104,5.59322033898305193134,3.22033898305084775870,0.67796610169491466902,0.00000000000000000000,0.00000000000000000000,0.00000000000000000000,0.00000000000000000000,0.00000000000000000000,0.00000000000000000000,0.00000000000000000000,2.85714285714285631812,1.66666666666666696273,0.47619047619047627506,0.00000000000000000000,0.00000000000000000000,0.00000000000000000000,0.00000000000000000000,0.00000000000000000000,0.00000000000000000000,1.69491525423728872646,6.94915254237288326777,1.35593220338983067030,0.00000000000000000000,21.00000000000000000000,0.00000000000000000000,1.19047619047619046562,2.38095238095238048714,0.95238095238095255013,0.47619047619047627506,0.00000000000000000000,0.00000000000000000000,0.33898305084745750104,3.05084745762711895267,5.25423728813559431927,1.35593220338982933804,0.00000000000000000000,0.00000000000000000000,0.00000000000000000000,0.00000000000000000000,2.00000000000000000000,0.02749753209813463745,-0.00356698008783192140,-0.08627732534471811709,-0.17790150928060646796,-0.21442197241329899460,-0.14748789370403075916,-0.01156961944001607887,-0.00847014546608908236,0.03464798574024949979,0.09472551845257201619,0.17121827987543308813,0.26166378890337466112,0.33332544567077670994,0.38359940993862123859,0.38564688702899591055,0.37531504098781520717,0.35984227547740543773,0.36325040896260041290,0.36608839319003111390,0.39950063172961319813,0.43193956524841614630,0.47705414445451133076,0.53400940382989003918,0.58059469675968278235,0.63751716812689274150,0.39631769078886780466,0.82400000000000006573,0.20000000000000001110,0.62399999999999999911,0.11199999999999998845,0.06538782368072321161,0.32800000000000001377,-0.02023472839497642006,0.47599999999999997868,0.56116179772865482089,0.00032667535613550847,0.27600000000000002309,0.34799999999999997602,1.75397975459602206705,0.23963963963963963444,0.76036036036036036556,0.13295400663821715925,0.39364627785680417205,0.57548601232811757988,0.33584637268847794545,0.42451398767188242012,0.14000000000000001332,0.17207207207207209088,0.61599999999999999201,0.75059269796111904860,0.75600000000000000533,0.92266477003319113948,4.44243421052631592971,0.09600000000000000200,0.11721194879089616436,0.42399999999999998801,0.51616880037932666436,0.52000000000000001776,0.63338074917022280097,4.41666666666666607455,0.06400000000000000133,0.07814129919393077162,0.14000000000000001332,0.16979611190137505750,0.20400000000000001465,0.24793741109530584299,2.18750000000000000000,1.67486033944830059461,6.87113163860630216107,20.34980490467211211580,12.99304402587345919073,8.54599197805460342181,33.34284893054557130654,0.17444955328735844979,0.82555044671264155021,0.63701861999538622605,0.36298138000461366293,0.20880927084239106484,0.79119072915760901843,0.24430143574756402192,0.43574023615159512834,0.00658315541833505956,-0.00723452410818459235,-0.00085681932106795866,-0.00216386452683220432,0.00270119549103603473,0.23379888038669127681,0.84021186061282060464,0.94837502710380039428,0.92538029803967858378,0.57090443854977190874,-1.30708837767976548960,-0.15129429093227639291,-0.46133331756648532362,0.45201198695245198289,29.62096453504443971383,34.78209479636004175518,34.27540442188530533940,21.45900360649766724919,0.01600000000000000033,0.11599999999999999201,0.08799999999999999489,0.01600000000000000033,0.18399999999999999689,0.02105263157894736795,0.13594120436225698434,0.10820293978188715023,0.01953532479848269290,0.22238027501185395063,0.18399999999999999689,0.06800000000000000488,0.02000000000000000042,0.03600000000000000422,0.22000000000000000111,0.21858700806069225608,0.08264580369843527174,0.02555713608345187154,0.04509246088193456792,0.26747273589378850467,-1.14647275613345578371,-0.00468942837353804494,-0.69446076918100374531,0.01214342669844029401
41,41_1,103,65,,,,79.78723404255319451295,94.00000000000000000000,0.98645444110173274854,79.00000000000000000000,0.91645124753452722466,31.00000000000000000000,0.83301968518739466507,13.00000000000000000000,0.70616509793333326339,7.00000000000000000000,0.59927499328495681397,34.00000000000000000000,0.90909090909090906063,0.68181818181818176772,0.68181818181818154567,0.68181818181818198976,2.04545454545454585826,0.68965517241379314939,1.03448275862068972408,1.72413793103448220734,1.55172413793103469715,2.06896551724137989225,0.51724137931034441795,0.51724137931034497306,0.34482758620689663021,0.34482758620689663021,1.20689655172413812245,22.00000000000000000000,0.00000000000000000000,0.68181818181818176772,1.36363636363636309135,0.90909090909090928267,2.04545454545454585826,1.20689655172413790041,2.24137931034482740245,3.27586206896551646039,2.58620689655172464327,0.68965517241379326041,0.00000000000000000000,0.00000000000000000000,0.00000000000000000000,0.00000000000000000000,0.00000000000000000000,10.00000000000000000000,1.59090909090909082835,0.90909090909090906063,0.45454545454545436378,0.68181818181818198976,1.36363636363636397952,0.00000000000000000000,0.51724137931034486204,4.13793103448275711997,1.89655172413793149389,0.86206896551724165878,1.03448275862068883590,1.55172413793103469715,0.00000000000000000000,0.00000000000000000000,0.00000000000000000000,4.00000000000000000000,0.45454545454545453032,1.13636363636363646457,1.81818181818181745513,1.36363636363636397952,0.22727272727272732067,0.00000000000000000000,0.00000000000000000000,0.34482758620689640816,1.37931034482758652082,3.62068965517241458940,2.41379310344827402446,0.86206896551724165878,1.03448275862068994613,0.34482758620689663021,0.00000000000000000000,0.00000000000000000000,0.00000000000000000000,1.59090909090909082835,2.04545454545454497008,0.90909090909090928267,0.45454545454545464134,0.00000000000000000000,0.00000000000000000000,0.17241379310344820408,0.68965517241379326041,2.06896551724137989225,2.93103448275861833139,1.72413793103448331756,1.55172413793103469715,0.86206896551724165878,0.00000000000000000000,51.00000000000000000000,0.00919585678159627780,-0.04762480358103479694,-0.14339988664451550071,-0.21752318640218554213,-0.18962288688513112556,-0.09735209592099772213,-0.01288258530807373861,-0.03923427794738889446,0.01076493665280303484,0.09860303538516909660,0.22544781245556616556,0.31171170639423245730,0.37398139070845892729,0.37639764694419808322,0.36452748676275381623,0.37487543611810741906,0.45080468064285583729,0.50513679020820800858,0.50863412136876584579,0.51185249138485300335,0.54768065561202894376,0.57879630441826335208,0.65559128654748333176,0.72512180774656909144,0.81060973968781313559,0.24441856132953776459,0.81600000000000005862,0.22799999999999998046,0.58799999999999996714,0.09199999999999999845,0.05078541585399232172,0.32399999999999995470,-0.03133482856967506613,0.44400000000000000577,0.52185665164918670911,-0.00011026262737126591,0.21599999999999999756,0.37199999999999999734,1.87780067519938409504,0.27922077922077920276,0.72077922077922074173,0.11240981240981240408,0.39668109668109663435,0.54415584415584405953,0.26493506493506491228,0.45584415584415582945,0.22000000000000000111,0.26911976911976909221,0.51200000000000001066,0.63001443001442991587,0.73199999999999998401,0.89913419913419923013,2.37000000000000010658,0.14799999999999999267,0.18138528138528137168,0.27600000000000002309,0.34069264069264071360,0.42399999999999998801,0.52207792207792214079,1.87719298245614041321,0.10799999999999999878,0.13261183261183262516,0.10000000000000000555,0.12251082251082251462,0.20799999999999999045,0.25512265512265513978,0.92857142857142860315,2.68706260849334155338,11.92100559657226455101,16.37880615920645865913,10.66463799809365120552,14.60806820506560654849,27.04344415730011164101,0.16372349879159092678,0.83627650120840901771,0.60254004863563148664,0.39745995136436840234,0.34721256271456490961,0.65278743728543520142,0.39106672855818896961,0.51036917938026638009,0.00568651287709093234,-0.00445663704826726459,-0.00023595821393057603,-0.00485428186851621923,0.00414733814229095721,0.27803762497931217013,0.77573799064993043118,0.97671044799398809566,0.92593850773794028619,0.59298123615865550029,-0.96212153582807846686,-0.02359127031640824088,-1.51737213068571286101,1.12115227586656440728,2.83390980405528747355,3.54375776646831219807,3.34787999237440470068,2.13172256059200382339,0.00000000000000000000,0.10799999999999999878,0.11200000000000000233,0.04000000000000000083,0.11600000000000000588,0.00000000000000000000,0.13232323232323234263,0.13679653679653680509,0.04963924963924963574,0.14300144300144299048,0.22799999999999998046,0.11999999999999999556,-0.00800000000000000017,0.03200000000000000067,0.14799999999999999267,0.27922077922077920276,0.14689754689754691563,-0.01010101010101010187,0.03953823953823953907,0.18253968253968252955,-0.54231041069252172715,-0.00306576979024276476,0.57884186517404256911,0.00982252325496917565
41,41_2,103,65,,,,81.96721311475410232106,91.50000000000000000000,0.98023474163978185913,1.00000000000000000000,0.89790242713891943449,34.00000000000000000000,0.86281695704258554169,15.00000000000000000000,0.73914487258417949089,9.00000000000000000000,0.58942518721888226274,4.00000000000000000000,1.95652173913043481157,0.43478260869565216185,0.43478260869565199531,0.65217391304347838155,1.52173913043478292728,0.00000000000000000000,2.45614035087719306816,1.57894736842105221086,1.57894736842105287700,1.05263157894736858466,0.52631578947368373722,0.52631578947368429233,0.35087719298245617638,0.70175438596491235277,1.22807017543859675612,23.00000000000000000000,0.00000000000000000000,1.08695652173913037686,1.30434782608695609696,0.86956521739130454574,1.73913043478260909147,1.57894736842105265495,1.22807017543859653408,6.31578947368420884345,0.87719298245614063525,0.00000000000000000000,0.00000000000000000000,0.00000000000000000000,0.00000000000000000000,0.00000000000000000000,0.00000000000000000000,12.00000000000000000000,1.95652173913043481157,0.21739130434782608092,0.65217391304347804848,1.08695652173913082095,1.08695652173913082095,0.00000000000000000000,0.17543859649122806044,0.35087719298245600985,2.28070175438596534079,4.73684210526315929712,1.75438596491227927210,0.70175438596491235277,0.00000000000000000000,0.00000000000000000000,0.00000000000000000000,7.00000000000000000000,0.65217391304347827052,0.86956521739130432369,0.65217391304347804848,1.95652173913043503362,0.86956521739130454574,0.00000000000000000000,0.00000000000000000000,0.00000000000000000000,0.00000000000000000000,0.00000000000000000000,2.80701754385964674654,3.68421052631579026837,2.80701754385964941108,0.70175438596491235277,0.00000000000000000000,5.00000000000000000000,1.08695652173913037686,0.86956521739130432369,1.52173913043478203910,1.52173913043478292728,0.00000000000000000000,0.00000000000000000000,0.17543859649122806044,0.17543859649122800493,2.10526315789473716933,4.03508771929824661129,1.75438596491227927210,1.22807017543859675612,0.00000000000000000000,0.35087719298245617638,0.17543859649122808819,75.00000000000000000000,0.03949674004724537668,0.02208945174291671379,-0.07136568795257743070,-0.18614866601021629045,-0.19115705699587806632,-0.10067628185253918449,-0.00921467356214646788,-0.02919486723079409846,-0.00419414998457643719,0.04015235437139052371,0.14335304535483883726,0.25100982156722878580,0.35006017993376370434,0.40093319226765267160,0.43694020271844291603,0.47041083059211019624,0.50183195300325944554,0.53812262345865313762,0.57731995297604843387,0.61766158060675713237,0.66268001688516464665,0.69451362092749091559,0.72833417606960626500,0.70593678804399839777,0.74441596662504450066,0.26651566055907349728,0.80400000000000004796,0.21599999999999999756,0.58800000000000007816,0.10799999999999999878,0.07461318903409000503,0.33199999999999996181,-0.03517029333689575266,0.44800000000000000933,0.41929659820692233296,-0.00811220754161984248,0.23200000000000001177,0.35599999999999998312,2.35414160656270965433,0.27106741573033710235,0.72893258426966289765,0.13438001605136434824,0.41552969502407705038,0.56345304975922949620,0.29238563402889250487,0.43654695024077044829,0.12800000000000000266,0.16131621187800962436,0.42399999999999998801,0.54474317817014450416,0.55200000000000004619,0.70605939004815410076,3.31250000000000000000,0.10000000000000000555,0.12660513643659709881,0.18399999999999999689,0.23304574638844299805,0.28400000000000003020,0.35965088282504009687,1.83974358974358986885,0.07199999999999999456,0.09074036918138042584,0.11599999999999999201,0.14676966292134829839,0.18800000000000000044,0.23751003210272872423,1.61111111111111116045,1.43979993120547433705,9.96496343073451562589,20.71091916975760582886,9.85710428894530998889,11.40476336193998996293,30.56802345870291759411,0.12570649637676967192,0.87429350362323032808,0.67862730748059096886,0.32137269251940903114,0.27200770593901607564,0.72799229406098397988,0.42309692509902757651,0.50728360175252551478,0.01058834810229332402,-0.00691532972183608874,-0.00150357395814409989,-0.00419254165630733588,0.00526723951835650350,0.08351244659188034047,0.72462849392543915439,0.96137808941356728276,0.89475906209305866579,0.50345863632761156392,-0.65576402379670128973,-0.14540099173888235140,-0.39565385866085900357,0.49829670050786689650,8.69918991932834195779,11.69068246208876438175,10.77173753562690627916,6.28281748661384931154,0.04000000000000000083,0.08399999999999999134,0.11199999999999998845,0.02800000000000000058,0.11999999999999999556,0.04925762439807383763,0.10413322632423754888,0.14576645264847512551,0.03817215088282503721,0.14200441412520065088,0.17599999999999998979,0.09199999999999999845,0.02000000000000000042,0.04800000000000000100,0.16799999999999998268,0.22180979133226325084,0.11767656500802567421,0.02808988764044943742,0.06626203852327447463,0.20826645264847509775,-0.61300587390482674799,-0.00461277007843526737,-0.11470917339695987924,0.01752510313044380527
41,41_3,103,65,,,,66.96428571428572240620,112.00000000000000000000,0.97596309201787578846,1.00000000000000000000,0.86291848699885576046,30.00000000000000000000,0.79808640094852401070,14.00000000000000000000,0.77608508365246020588,9.00000000000000000000,0.76448973060984048988,7.00000000000000000000,1.57894736842105265495,0.52631578947368418131,0.52631578947368407029,0.78947368421052654952,1.57894736842105309904,1.96721311475409832425,2.29508196721311463762,0.98360655737704882906,1.14754098360655754085,0.98360655737704938417,0.32786885245901609132,0.49180327868852469209,0.16393442622950821219,0.49180327868852469209,1.14754098360655754085,19.00000000000000000000,0.00000000000000000000,0.52631578947368418131,1.31578947368421017572,1.31578947368421084185,1.84210526315789513419,0.98360655737704916213,1.80327868852459016757,3.27868852459016313361,3.93442622950819753669,0.00000000000000000000,0.00000000000000000000,0.00000000000000000000,0.00000000000000000000,0.00000000000000000000,0.00000000000000000000,9.00000000000000000000,2.10526315789473672524,0.26315789473684209065,0.26315789473684203514,1.05263157894736858466,1.31578947368421084185,0.00000000000000000000,0.65573770491803273774,2.13114754098360581480,3.77049180327868960205,2.13114754098360714707,0.81967213114754033931,0.49180327868852469209,0.00000000000000000000,0.00000000000000000000,0.00000000000000000000,5.00000000000000000000,1.31578947368421061981,0.52631578947368418131,2.36842105263157831629,0.78947368421052654952,0.00000000000000000000,0.00000000000000000000,0.00000000000000000000,0.32786885245901625785,0.32786885245901642438,2.29508196721311508171,4.26229508196720896507,1.63934426229508245498,0.81967213114754122749,0.16393442622950821219,0.16393442622950821219,79.00000000000000000000,1.84210526315789469010,2.63157894736842123962,0.52631578947368407029,0.00000000000000000000,0.00000000000000000000,0.00000000000000000000,0.32786885245901636887,1.63934426229508156680,2.29508196721311508171,2.78688524590163977379,1.31147540983606436527,0.81967213114754122749,0.32786885245901642438,0.32786885245901642438,0.16393442622950821219,78.00000000000000000000,-0.00304610095857793528,-0.06854403626835449403,-0.19703426238175053564,-0.28266184732153976089,-0.25868175647922858618,-0.14930430804393471367,-0.01366490843194985080,-0.02533481285079752787,0.01269797401220461655,0.14054704232803749697,0.27346950541710091098,0.38861871229507488623,0.43756620861242989662,0.47962846855438179272,0.51182806975324923737,0.57123933606334564850,0.62637042453960090072,0.68237620956737643496,0.75057211862049211248,0.81152635327482447458,0.81019248512350960922,0.81722212707202568360,0.81948152577497235249,0.82318272412536153126,0.84414360145115674428,0.13652617432476868431,0.91200000000000003286,0.22000000000000000111,0.69199999999999994849,0.08799999999999999489,0.07100216518728905135,0.33199999999999996181,-0.03766057618223189740,0.45999999999999996447,0.39145948550862186277,-0.00640544382547780788,0.23999999999999999112,0.45199999999999995737,2.54713032787220416964,0.24128510965756061468,0.75871489034243944083,0.09642170065409771951,0.36394767218160828381,0.50469411312043088724,0.26340900346287032807,0.49530588687956911276,0.14799999999999999267,0.16233166602539439438,0.35599999999999998312,0.39018853405155828895,0.50400000000000000355,0.55252020007695268333,2.41081871345029252751,0.11599999999999999201,0.12724124663332050944,0.16800000000000001044,0.18422470180838784737,0.28400000000000003020,0.31146594844170838456,1.44999999999999995559,0.08399999999999999134,0.09215082724124662450,0.10799999999999999878,0.11839168911119661576,0.19200000000000000400,0.21054251635244325414,1.29090909090909100598,1.15108763967579275089,12.37158319482373514120,20.57778138157587122237,9.64773053185245288432,13.52267083449952700391,30.22551191342832410669,0.08592785988932216679,0.91407214011067783321,0.68600888943848570278,0.31399111056151418619,0.30990911770819540294,0.69009088229180470808,0.62584068844335127846,0.51202191840080713003,0.00710845176763718126,-0.00698961808343012692,0.00057490566336743099,-0.00542953796717066117,0.00491898589316366874,0.04609610463341520109,0.75718055818773932764,0.96722033503867788085,0.83769962612131876334,0.44989097035927694268,-1.03605592352615549778,0.09274423520848892877,-0.77934578294801371001,0.71957124934073291023,23.71915712377349194639,29.70287343392987011725,26.50227769810761202507,13.45282339803483395713,0.01200000000000000025,0.10400000000000000910,0.11999999999999999556,0.05600000000000000117,0.10799999999999999878,0.01319738360908041461,0.11396691035013467586,0.13166602539438246322,0.06148518661023470722,0.11823778376298577086,0.20799999999999999045,0.10400000000000000910,0.01600000000000000033,0.07200000000000000844,0.17999999999999999334,0.22808772604848018273,0.11412081569834550687,0.01754520969603693553,0.07903039630627164969,0.19726818006925739279,-1.06902562512736354350,-0.00372149503911792506,-0.34945437578663074429,0.03132215382793011871
45,45_3,160,77,,,,57.69230769230769340083,130.00000000000000000000,0.98089962813686837340,79.00000000000000000000,0.81588521878938580212,29.00000000000000000000,0.69872452331957912719,15.00000000000000000000,0.60923121348655140395,10.00000000000000000000,0.51791087144281000576,9.00000000000000000000,1.47058823529411775155,0.58823529411764707842,0.29411764705882342819,0.58823529411764718944,2.05882352941176494099,2.06349206349206371058,2.53968253968253954156,1.11111111111111071637,1.11111111111111138250,0.95238095238095266115,0.47619047619047577546,0.15873015873015874910,0.31746031746031749821,0.15873015873015874910,1.11111111111111138250,17.00000000000000000000,0.00000000000000000000,0.58823529411764707842,1.47058823529411730746,1.17647058823529437888,1.76470588235294156831,0.79365079365079360674,0.63492063492063488539,1.74603174603174537971,6.82539682539682690532,0.00000000000000000000,0.00000000000000000000,0.00000000000000000000,0.00000000000000000000,0.00000000000000000000,0.00000000000000000000,7.00000000000000000000,1.76470588235294112422,0.88235294117647056211,0.29411764705882342819,0.88235294117647078416,1.17647058823529437888,0.00000000000000000000,0.47619047619047616404,0.47619047619047599751,3.33333333333333436954,4.28571428571428647558,0.63492063492063433028,0.79365079365079382878,0.00000000000000000000,0.00000000000000000000,0.00000000000000000000,3.00000000000000000000,1.47058823529411775155,0.29411764705882353921,0.58823529411764685637,1.76470588235294156831,0.88235294117647078416,0.00000000000000000000,0.00000000000000000000,0.00000000000000000000,0.95238095238095266115,2.22222222222222276500,3.17460317460317176241,2.22222222222222276500,0.95238095238095266115,0.15873015873015874910,0.31746031746031749821,1.00000000000000000000,0.88235294117647056211,0.29411764705882353921,1.76470588235294045809,1.17647058823529437888,0.88235294117647078416,0.31746031746031744269,0.31746031746031744269,0.79365079365079338469,1.11111111111111138250,2.22222222222222276500,2.38095238095237871079,1.42857142857142882519,0.95238095238095266115,0.31746031746031749821,0.15873015873015874910,48.00000000000000000000,-0.01055419051504332024,-0.09677771506560854664,-0.27250544839189849711,-0.36148190521215778359,-0.33043988970408194605,-0.21327491007997553818,-0.02670729647737085655,-0.04840767836076010494,0.05384305788945626531,0.25166198715118737184,0.38323664495969461674,0.44761123914895134535,0.46146850844313003215,0.50981920394025592724,0.56254755094617159283,0.62756124699625037699,0.66750534947234196892,0.69998189113213760137,0.73048908663871670033,0.77426973321471648237,0.78608345019849090729,0.80112762867870623840,0.80829623761499147516,0.83823334433699070445,0.86058773977471414440,0.13461024223762832475,0.84000000000000007994,0.22799999999999998046,0.61199999999999998845,0.08399999999999999134,0.07313333945095987221,0.31600000000000000311,-0.04231128092787295181,0.49199999999999999289,0.36626236599914374636,-0.00562264576591688103,0.26400000000000001243,0.34799999999999997602,3.00196992753323854686,0.28635294117647058787,0.71364705882352941213,0.10470588235294117641,0.39129411764705879229,0.58988235294117652430,0.30352941176470588092,0.41011764705882353121,0.16399999999999997913,0.20729411764705879540,0.39600000000000001865,0.49576470588235294068,0.56000000000000005329,0.70305882352941173608,2.42995169082125617166,0.13600000000000000977,0.17176470588235293047,0.16000000000000000333,0.19576470588235295178,0.29599999999999998535,0.36752941176470588225,1.19999999999999995559,0.10399999999999999523,0.13223529411764706198,0.08799999999999999489,0.10494117647058823217,0.19200000000000000400,0.23717647058823529416,0.89090909090909087276,1.20939441160971794531,14.17200535156907292844,20.15535581295231182253,8.92354828669553867826,15.38139976317878954148,29.07890409964785050079,0.07928514274072204215,0.92071485725927804111,0.68192143293351281663,0.31807856706648712786,0.34682755338659615463,0.65317244661340390088,0.47133839857483728064,0.48943208794982950849,0.01154131634613190377,-0.00777254679171240914,0.00075717689060927906,-0.00527641854083277240,0.00461036216346606686,0.14715353823740562333,0.76052637639387810076,0.97587566875920483955,0.89628595468269511848,0.38187570762772654609,-0.67250715472248923099,0.06500198882493998798,-0.45585735691761031241,0.39865380451279514018,5.14954871450099815888,6.67403641035956773919,6.12245789877630741671,2.68269683174414153015,0.03200000000000000067,0.07599999999999999811,0.10000000000000000555,0.06400000000000000133,0.19200000000000000400,0.03952941176470588236,0.09105882352941176150,0.12258823529411763675,0.08470588235294118640,0.21458823529411763520,0.19600000000000000755,0.11999999999999999556,-0.02000000000000000042,0.04399999999999999745,0.23599999999999998757,0.24682352941176469163,0.15576470588235294401,-0.03317647058823529338,0.05152941176470587914,0.26611764705882351434,-0.68030559114261401898,-0.00376159457274604595,-0.28165178662981893432,0.01629191626425595396
45,45_2,160,77,,,,65.50218340611354506109,114.50000000000000000000,0.97283798129735943316,1.00000000000000000000,0.84400526945204901175,28.00000000000000000000,0.74587619939712879180,13.00000000000000000000,0.80066032969889255888,8.00000000000000000000,0.55745831505899501312,6.00000000000000000000,1.57894736842105265495,0.52631578947368418131,0.26315789473684203514,0.78947368421052654952,1.84210526315789513419,2.29508196721311463762,2.78688524590163932970,0.81967213114754078340,0.65573770491803284877,1.14754098360655754085,0.49180327868852419249,0.32786885245901642438,0.32786885245901642438,0.32786885245901642438,0.81967213114754122749,19.00000000000000000000,0.00000000000000000000,0.78947368421052632748,1.57894736842105198882,0.78947368421052654952,1.84210526315789513419,1.14754098360655731881,0.49180327868852458106,4.42622950819671956424,3.93442622950819753669,0.00000000000000000000,0.00000000000000000000,0.00000000000000000000,0.00000000000000000000,0.00000000000000000000,0.00000000000000000000,8.00000000000000000000,1.57894736842105265495,1.05263157894736836262,0.52631578947368407029,0.52631578947368429233,1.31578947368421084185,0.00000000000000000000,0.65573770491803273774,0.49180327868852441453,3.93442622950819753669,2.95081967213114815252,1.63934426229508067863,0.32786885245901642438,0.00000000000000000000,0.00000000000000000000,0.00000000000000000000,4.00000000000000000000,0.52631578947368418131,1.05263157894736836262,0.52631578947368407029,1.05263157894736858466,1.84210526315789513419,0.00000000000000000000,0.00000000000000000000,0.00000000000000000000,0.16393442622950821219,0.49180327868852469209,2.13114754098360448253,3.60655737704918122333,1.96721311475409876834,1.31147540983606569753,0.32786885245901642438,27.00000000000000000000,0.52631578947368418131,0.26315789473684209065,2.10526315789473628115,1.31578947368421084185,0.78947368421052654952,0.00000000000000000000,0.00000000000000000000,0.32786885245901625785,0.65573770491803284877,2.13114754098360714707,2.45901639344262079589,1.47540983606557407626,1.14754098360655754085,1.47540983606557407626,0.32786885245901642438,9.00000000000000000000,-0.00761146403663407606,-0.08543922160866607163,-0.24134862770164211554,-0.32342474704497509164,-0.27756063078388765186,-0.15233759813973668518,-0.01059128057835437807,0.02948945893279138197,0.15449936858801413542,0.29562757102883391314,0.37614880109436205080,0.43381788093398854222,0.44654113488782876118,0.52188117058364980050,0.58209800401336364573,0.67561608478727297467,0.74023894862325001487,0.76305711526930408706,0.74803454075429709480,0.75464589356742184378,0.78190715588881065656,0.83949855281569263354,0.87545628315091006399,0.88360487946870958087,0.90798879519346564759,0.14967874751105325615,0.99199999999999999289,0.23200000000000001177,0.76000000000000000888,0.08799999999999999489,0.07020933476035456922,0.32000000000000000666,-0.03744075184963002734,0.44000000000000000222,0.43312446660988684899,-0.00247998232902224558,0.20799999999999999045,0.55200000000000004619,2.24772848129668556538,0.23387096774193547044,0.76612903225806450180,0.08870967741935484319,0.32258064516129031363,0.44354838709677418818,0.20967741935483871774,0.55645161290322575631,0.16000000000000000333,0.16129032258064515681,0.34399999999999997247,0.34677419354838712184,0.50400000000000000355,0.50806451612903225090,2.14999999999999991118,0.12800000000000000266,0.12903225806451612545,0.16800000000000001044,0.16935483870967740772,0.29599999999999998535,0.29838709677419356092,1.31250000000000000000,0.09600000000000000200,0.09677419354838709409,0.08799999999999999489,0.08870967741935484319,0.18399999999999999689,0.18548387096774193727,0.91666666666666662966,0.97456351221731574164,13.36096108107135194132,17.75583231032570807884,11.52690971295698396659,14.33552459328866746091,29.28274202328269382178,0.06798241012216381385,0.93201758987783622779,0.60635825347940619512,0.39364174652059374937,0.32865874105694847795,0.67134125894305152205,0.69552318484416197908,0.47698118406659434365,0.01124882419849250470,-0.00728462084345837813,-0.00173241776538846093,-0.00594707764398938465,0.00441403817699104195,0.14021233227822993417,0.79708623572486347886,0.95961131929587673017,0.93316224757032517623,0.43312446660988684899,-0.64758953601876156903,-0.15400878659128022785,-0.52868437972267123826,0.39239996101837765208,5.68485113094879324080,6.84398657167812274338,6.65535072705735597509,3.08906113729295617176,0.04000000000000000083,0.08799999999999999489,0.06400000000000000133,0.06400000000000000133,0.16800000000000001044,0.04032258064516128920,0.08870967741935484319,0.06451612903225806273,0.06451612903225806273,0.16935483870967740772,0.19200000000000000400,0.10399999999999999523,-0.04000000000000000083,0.02400000000000000050,0.19200000000000000400,0.19354838709677418818,0.10483870967741935887,-0.04032258064516128920,0.02419354838709677352,0.19354838709677418818,-0.35729633072318767173,-0.00378276724618546029,0.03510363029518996647,0.00320685923493542338
45,45_1,160,77,,,,66.96428571428572240620,112.00000000000000000000,0.97439217598763394612,0.00000000000000000000,0.86286614541750383811,28.00000000000000000000,0.81304695080775846172,11.00000000000000000000,0.67382080049026849000,7.00000000000000000000,0.39976928903460351439,53.00000000000000000000,1.25000000000000000000,0.50000000000000000000,0.49999999999999983347,0.75000000000000022204,2.00000000000000044409,1.33333333333333325932,2.83333333333333348136,1.33333333333333281523,1.00000000000000022204,1.16666666666666696273,0.66666666666666607455,0.33333333333333337034,0.33333333333333337034,0.16666666666666668517,0.83333333333333359239,20.00000000000000000000,0.00000000000000000000,1.00000000000000000000,1.24999999999999955591,1.25000000000000044409,1.50000000000000044409,1.16666666666666674068,0.50000000000000000000,3.49999999999999911182,4.50000000000000088818,0.33333333333333337034,0.00000000000000000000,0.00000000000000000000,0.00000000000000000000,0.00000000000000000000,0.00000000000000000000,7.00000000000000000000,1.75000000000000000000,1.25000000000000000000,0.24999999999999991673,0.75000000000000022204,1.00000000000000022204,0.00000000000000000000,0.83333333333333337034,0.83333333333333314830,4.16666666666666785090,3.16666666666666696273,0.33333333333333303727,0.50000000000000011102,0.16666666666666668517,0.00000000000000000000,0.00000000000000000000,3.00000000000000000000,0.75000000000000000000,0.50000000000000000000,1.24999999999999955591,1.50000000000000044409,1.00000000000000022204,0.00000000000000000000,0.00000000000000000000,0.16666666666666660190,0.50000000000000011102,1.33333333333333348136,2.83333333333333081683,2.33333333333333392545,2.00000000000000044409,0.83333333333333359239,0.00000000000000000000,1.00000000000000000000,0.25000000000000000000,1.50000000000000000000,1.24999999999999955591,1.25000000000000044409,0.75000000000000022204,0.16666666666666665741,0.66666666666666662966,0.16666666666666660190,1.50000000000000022204,2.16666666666666696273,1.99999999999999844569,2.16666666666666696273,0.66666666666666674068,0.33333333333333337034,0.16666666666666668517,47.00000000000000000000,-0.00501890152843761494,-0.11395414621466559701,-0.26920963319930907298,-0.33601559238685235753,-0.25865257831523330578,-0.12757697004483806169,-0.00307893980034806359,0.04337277888285993172,0.17463185563073543860,0.31624118484874946811,0.38777304911738275095,0.39911463282943132613,0.43639755398993945734,0.50980851426503981383,0.55211934511426730143,0.60956233351660449316,0.63456908221429497718,0.68052214138014033296,0.71171038900970184926,0.70101217437358187556,0.67669175036352102737,0.70090765804722687804,0.75770383994663381699,0.82765037578460842749,0.88714351133918556425,0.18236146806977987511,0.98399999999999998579,0.23200000000000001177,0.75200000000000000178,0.07199999999999999456,0.06805669712959533380,0.31199999999999999956,-0.03593450253276997408,0.40000000000000002220,0.47059686422647151183,-0.00406491422840637995,0.16800000000000001044,0.58399999999999996358,1.99866000751995787077,0.23577235772357724164,0.76422764227642281387,0.07317073170731706877,0.31707317073170732113,0.40650406504065039748,0.17073170731707318359,0.59349593495934960252,0.16800000000000001044,0.17073170731707318359,0.37600000000000000089,0.38211382113821140694,0.54400000000000003908,0.55284552845528456277,2.23809523809523813753,0.14399999999999998912,0.14634146341463413754,0.16800000000000001044,0.17073170731707318359,0.31199999999999999956,0.31707317073170732113,1.16666666666666674068,0.10399999999999999523,0.10569105691056911167,0.08799999999999999489,0.08943089430894309022,0.19200000000000000400,0.19512195121951220189,0.84615384615384614531,0.74508892662643433358,14.28752339413457583817,14.66157920140140369369,15.42919688483317131045,15.03261232076101094890,30.09077608623457678050,0.04956483349187541104,0.95043516650812454039,0.48724496700862884868,0.51275503299137115132,0.33314458092492160723,0.66685541907507839277,0.64961862139801607174,0.47584557099273844250,0.00947326887616475183,-0.00763512782247677269,-0.00074698665175509937,-0.00508706601029162986,0.00653612636676537129,0.03997746866237498337,0.76909893057506673042,0.84610570293476949910,0.92343082001049914265,0.47694762162395620830,-0.80596549325092636806,-0.07885204795934352973,-0.53699162103283681891,0.68995469802515718705,19.23830988576093758979,21.16456422192349862144,23.09878166147100841954,11.93041074341052798502,0.00800000000000000017,0.11200000000000000233,0.02400000000000000050,0.09600000000000000200,0.13600000000000000977,0.00813008130081300899,0.11382113821138210852,0.02439024390243902524,0.09756097560975610095,0.13821138211382114069,0.22400000000000000466,0.11200000000000000233,-0.08799999999999999489,0.00800000000000000017,0.14399999999999998912,0.22764227642276421704,0.11382113821138210852,-0.08943089430894309022,0.00813008130081300899,0.14634146341463413754,-0.88007652228390320648,-0.00301492179078561868,-0.19012182425874601943,0.00050016978004974871
48,48_2,142,90,,,,83.33333333333332859638,90.00000000000000000000,0.98402869137688786516,0.00000000000000000000,0.89191203213350223056,32.00000000000000000000,0.83971265946934425806,11.00000000000000000000,0.74815252604551862881,6.00000000000000000000,0.68535905547695141760,3.00000000000000000000,1.73913043478260864738,0.43478260869565216185,0.43478260869565199531,0.86956521739130454574,1.52173913043478292728,0.00000000000000000000,3.15789473684210530990,1.40350877192982403940,1.22807017543859675612,0.87719298245614063525,0.52631578947368373722,0.52631578947368429233,0.52631578947368429233,0.35087719298245617638,1.40350877192982470554,23.00000000000000000000,0.00000000000000000000,0.65217391304347827052,1.30434782608695609696,1.30434782608695676309,1.73913043478260909147,1.22807017543859653408,1.57894736842105265495,2.63157894736841990735,4.56140350877193068158,0.00000000000000000000,0.00000000000000000000,0.00000000000000000000,0.00000000000000000000,0.00000000000000000000,0.00000000000000000000,11.00000000000000000000,2.17391304347826075372,0.21739130434782608092,0.65217391304347804848,0.65217391304347838155,1.30434782608695676309,0.00000000000000000000,0.35087719298245612087,1.40350877192982403940,1.05263157894736858466,5.96491228070175516507,1.22807017543859542386,0.00000000000000000000,0.00000000000000000000,0.00000000000000000000,0.00000000000000000000,6.00000000000000000000,0.86956521739130432369,0.65217391304347827052,0.65217391304347804848,1.52173913043478292728,1.30434782608695676309,0.00000000000000000000,0.00000000000000000000,0.00000000000000000000,0.00000000000000000000,0.00000000000000000000,1.57894736842105110064,4.38596491228070295421,2.98245614035087758253,1.05263157894736858466,0.00000000000000000000,2.00000000000000000000,0.65217391304347827052,0.65217391304347827052,1.52173913043478203910,1.73913043478260909147,0.43478260869565227287,0.00000000000000000000,0.00000000000000000000,0.00000000000000000000,0.52631578947368429233,1.92982456140350921991,3.33333333333333037274,2.45614035087719351225,1.05263157894736858466,0.52631578947368429233,0.17543859649122808819,75.00000000000000000000,0.05642216136323649489,0.01143989131971656983,-0.12704808482522073065,-0.23589182759678548051,-0.20316821505828885908,-0.09535456867519209734,-0.00784311326213714063,-0.02851413461893260309,0.01338483081356891743,0.09121852319908548001,0.20727954968825257343,0.30430147215912106695,0.38403439621492846401,0.43912731110248481858,0.49238472320124326842,0.54064322113401586112,0.57843872261407036639,0.62249382180471202197,0.67081130147199541369,0.69513934904222018929,0.72510168542846531459,0.75745319629542195994,0.78750336467217996184,0.78860680380571934744,0.82308099893883079901,0.17116739563189140028,0.80000000000000004441,0.22400000000000000466,0.57599999999999995648,0.09199999999999999845,0.07190458339520933162,0.32800000000000001377,-0.03893887318840838496,0.48799999999999998934,0.32116851895585774024,-0.00993966096486502415,0.26400000000000001243,0.31199999999999999956,3.26924061299173285278,0.28644501278772377395,0.71355498721227617054,0.11841432225063938666,0.41943734015345268684,0.61483375959079289430,0.32838874680306906484,0.38516624040920716121,0.14799999999999999267,0.18849104859335036322,0.31999999999999995115,0.41381074168797948865,0.46799999999999997158,0.60230179028132990737,2.16812865497076012744,0.11999999999999999556,0.15345268542199488881,0.16799999999999998268,0.21636828644501279739,0.28800000000000003375,0.36982097186700768621,1.39999999999999991118,0.08799999999999999489,0.11253196930946292309,0.10000000000000000555,0.12864450127877238850,0.18800000000000000044,0.24117647058823529771,1.13636363636363624252,1.21028654882379838043,12.31849546354090207956,20.53776277772553626733,5.97777703967155993325,13.52878201236470090407,26.51553981739709797694,0.08947937713974402074,0.91052062286025603477,0.77415829902400035145,0.22584170097599964855,0.33762774429247965902,0.66237225570752045201,0.46199363968956452808,0.53846746925716459931,0.01019598019295257785,-0.00655746648932342691,-0.00112883490877380144,-0.00449802590136838543,0.00487766523852933842,0.18974542812631789435,0.75500869793135416685,0.95732567689058267746,0.86171431195444214701,0.55919375158723605423,-0.64332545891220305201,-0.10884101206583957078,-0.44051073060626178002,0.47598220858816464585,3.99406561652080771552,5.11593079273217199443,4.64739944425519091453,2.97958344416887310757,0.04800000000000000100,0.07200000000000000844,0.11200000000000000233,0.04399999999999999745,0.07599999999999999811,0.06138107416879795553,0.09053708439897698024,0.14322250639386188698,0.05396419437340153891,0.10255754475703325601,0.17599999999999998979,0.10400000000000000910,0.00800000000000000017,0.05199999999999999761,0.12800000000000000266,0.22506393861892584618,0.13452685421994883819,0.00869565217391304358,0.06265984654731457382,0.16521739130434781595,-0.56995592482826640257,-0.00376357342587214667,-0.09397371624010179836,0.02269554460923971576
48,48_3,142,90,,,,68.80733944954128844529,109.00000000000000000000,0.97754327069907387404,0.00000000000000000000,0.84051011621553040065,29.00000000000000000000,0.81050492142382346561,13.00000000000000000000,0.76414456190593205154,6.00000000000000000000,0.66598768374870620512,33.00000000000000000000,0.78947368421052632748,1.05263157894736836262,0.52631578947368407029,0.78947368421052654952,1.84210526315789513419,1.47540983606557385421,1.96721311475409832425,1.63934426229508156680,0.98360655737704938417,0.98360655737704938417,0.65573770491803218263,0.49180327868852469209,0.32786885245901642438,0.32786885245901642438,1.14754098360655754085,19.00000000000000000000,0.00000000000000000000,0.52631578947368418131,1.57894736842105198882,1.05263157894736858466,1.84210526315789513419,1.14754098360655731881,1.31147540983606547549,4.09836065573770369497,3.44262295081967284460,0.00000000000000000000,0.00000000000000000000,0.00000000000000000000,0.00000000000000000000,0.00000000000000000000,0.00000000000000000000,8.00000000000000000000,2.36842105263157876038,0.26315789473684209065,0.52631578947368407029,0.26315789473684214617,1.57894736842105309904,0.00000000000000000000,1.96721311475409832425,2.45901639344262212816,2.78688524590163977379,1.63934426229508245498,1.14754098360655643063,0.00000000000000000000,0.00000000000000000000,0.00000000000000000000,0.00000000000000000000,4.00000000000000000000,1.05263157894736836262,0.78947368421052632748,1.57894736842105198882,0.78947368421052654952,0.78947368421052654952,0.00000000000000000000,0.00000000000000000000,0.00000000000000000000,1.47540983606557407626,4.26229508196721429414,2.62295081967212873053,1.14754098360655754085,0.32786885245901642438,0.16393442622950821219,0.00000000000000000000,1.00000000000000000000,1.57894736842105265495,0.78947368421052632748,1.05263157894736814058,0.78947368421052654952,0.78947368421052654952,0.00000000000000000000,0.32786885245901636887,1.31147540983606503140,0.65573770491803284877,1.31147540983606569753,1.80327868852458861326,1.63934426229508245498,1.80327868852459061166,0.81967213114754122749,0.32786885245901642438,79.00000000000000000000,-0.01633322500293711219,-0.07732035943452972293,-0.18421363072491794832,-0.25038576836628562150,-0.22092521541110424210,-0.12605128910765717176,-0.01317392286976319486,-0.02708762295375095538,0.01780149275161492864,0.14117859197732227083,0.24603088208638676515,0.32959993620472688436,0.37066874911806108051,0.42664241365035621145,0.46668047311195975935,0.52904721511135199830,0.57232157037843400804,0.63422240404878837960,0.65011776227729989319,0.68528153151378701224,0.70212920805639245092,0.73459802439271637553,0.77581215789864843568,0.84409919696436475078,0.89946650558852103696,0.21671513202384015684,0.88400000000000000799,0.21199999999999999400,0.67199999999999993072,0.06800000000000000488,0.06068049115976018038,0.29600000000000004086,-0.03037467763436080270,0.51200000000000001066,0.32665475495157980657,-0.00688759779682068807,0.29999999999999998890,0.37199999999999999734,2.81282484832289991772,0.23983939691904293534,0.76016060308095712017,0.07665519501802686708,0.33460340871845295485,0.57907243526712548487,0.33923303834808260504,0.42092756473287445962,0.16800000000000001044,0.19014257620452312825,0.46000000000000001998,0.52298426745329396059,0.62800000000000000266,0.71312684365781708884,2.73809523809523813753,0.13200000000000000622,0.14950016388069486961,0.20000000000000001110,0.22656506063585707400,0.33199999999999996181,0.37606522451655194361,1.51470588235294112422,0.10000000000000000555,0.11328253031792853700,0.10000000000000000555,0.11307767944936086835,0.20000000000000001110,0.22636020976728943310,1.00320512820512819374,1.36620876575712024703,12.37724842105506439793,21.47936570589902771644,7.98286824391777649623,13.74345718681218464496,29.46223394981680243632,0.09345158886550836153,0.90654841113449158296,0.72482385488056366718,0.27517614511943633282,0.31733734084536691089,0.68266265915463320013,0.54855398409433753226,0.51351304270391762152,0.01070878129737396281,-0.00563366431986311866,-0.00083011991169290589,-0.00409578568947832622,0.00390480198860221339,0.17541534033088482247,0.67562789441075254970,0.90904850917806911959,0.85210936279459748022,0.41471432344822811711,-0.53645010035077733690,-0.08037345668502379747,-0.41895342594643203427,0.36443661576911823285,5.45542191200436921150,7.24954358686632538422,6.67614819524176894561,3.86871055204809310979,0.01600000000000000033,0.07599999999999999811,0.11600000000000000588,0.04399999999999999745,0.17199999999999998623,0.01769911504424778736,0.08632415601442150477,0.13077679449360865571,0.05031137332022287550,0.19251884627990822896,0.19600000000000000755,0.11999999999999999556,-0.00400000000000000008,0.04000000000000000083,0.21199999999999999400,0.22214028187479514798,0.13581612586037367096,-0.00503933136676499444,0.04527204195345788107,0.23779088823336611003,-0.40155983348843982128,-0.00318009119917942416,-0.03712321771932156067,0.01064673240803728355
48,48_1,142,90,,,,64.65517241379311030869,116.00000000000000000000,0.97417522441635462371,79.00000000000000000000,0.84664290549473020242,30.00000000000000000000,0.75301822153203767929,14.00000000000000000000,0.97293944136010013235,9.00000000000000000000,0.71184964666935113264,7.00000000000000000000,1.42857142857142860315,0.71428571428571430157,0.47619047619047599751,0.71428571428571441260,1.66666666666666696273,0.00000000000000000000,3.55932203389830492668,1.52542372881355881020,1.35593220338983067030,0.67796610169491533515,0.67796610169491466902,0.33898305084745766758,0.33898305084745766758,0.50847457627118652912,1.01694915254237305824,21.00000000000000000000,0.00000000000000000000,0.95238095238095232808,1.19047619047619024357,1.19047619047619090971,1.66666666666666696273,1.18644067796610164223,1.01694915254237283619,1.69491525423728761623,6.10169491525423790534,0.00000000000000000000,0.00000000000000000000,0.00000000000000000000,0.00000000000000000000,0.00000000000000000000,0.00000000000000000000,10.00000000000000000000,2.14285714285714279370,0.23809523809523808202,0.71428571428571407953,0.71428571428571441260,1.19047619047619090971,0.00000000000000000000,0.00000000000000000000,1.52542372881355881020,0.33898305084745766758,6.27118644067796715547,1.69491525423728672806,0.16949152542372883379,0.00000000000000000000,0.00000000000000000000,0.00000000000000000000,6.00000000000000000000,0.95238095238095232808,0.71428571428571430157,0.23809523809523799875,1.66666666666666696273,1.42857142857142882519,0.00000000000000000000,0.00000000000000000000,0.00000000000000000000,0.00000000000000000000,0.00000000000000000000,1.35593220338982933804,3.72881355932203506498,3.05084745762711895267,1.35593220338983067030,0.50847457627118652912,4.00000000000000000000,0.47619047619047616404,0.23809523809523808202,2.14285714285714234961,1.66666666666666696273,0.47619047619047627506,0.00000000000000000000,0.00000000000000000000,0.00000000000000000000,0.50847457627118652912,1.52542372881355947634,4.06779661016948779206,2.03389830508474611648,1.01694915254237305824,0.67796610169491533515,0.16949152542372883379,79.00000000000000000000,0.02442754904435470720,-0.02260919521131367349,-0.14523491672755167725,-0.24680277683663467969,-0.21632638422733596606,-0.10837540820608244918,-0.00638007979375434034,-0.00664347535367086628,0.05551698927162287966,0.17137219621451110774,0.30693968389051523582,0.39403837556331644532,0.45511553725728715047,0.49994403491655914351,0.54663381825565782179,0.58558289542301078523,0.62590023018566454116,0.66986706622362301999,0.69632704649504328920,0.70626514352983371658,0.72041833834396173941,0.72977143195951632570,0.73455613324074731096,0.73515902255997445103,0.74278335496495984103,0.10770702424382853912,0.80400000000000004796,0.22800000000000000822,0.57599999999999995648,0.09600000000000000200,0.06810188532180547205,0.32800000000000001377,-0.03638494163597993936,0.50000000000000000000,0.33758507032976048379,-0.00859173506061476633,0.27200000000000001954,0.30399999999999999245,3.34239573025595237965,0.29034378159757329163,0.70965621840242665286,0.12340748230535894536,0.41516683518705765898,0.62704752275025277264,0.33670374115267948101,0.37295247724974722736,0.15199999999999999623,0.19307381193124367735,0.37199999999999999734,0.48645096056622849634,0.52400000000000002132,0.67952477249747222920,2.44736842105263141534,0.11999999999999999556,0.15242669362992922188,0.17199999999999998623,0.22067745197168855964,0.29200000000000003730,0.37310414560161780928,1.43333333333333334814,0.08799999999999999489,0.11177957532861476642,0.10399999999999999523,0.13210313447927199415,0.19200000000000000400,0.24388270980788673281,1.18181818181818187874,1.42949730369140493025,12.58007686119927015511,21.65697045247359042719,6.81241599882024129187,14.00957416489067597354,28.46938645129382905452,0.10204173133340174728,0.89795826866659822496,0.76462923277008532086,0.23537076722991473465,0.33015932660623625861,0.66984067339376385242,0.41667427390964151268,0.51705985518658881261,0.01066050758910715851,-0.00638983566183182194,-0.00159526279806615490,-0.00501659156884026736,0.00527202773540186298,0.18543976670144307617,0.74918216955572036753,0.98426787162617013216,0.85333039738849836287,0.52551977762492918522,-0.62067687047396380429,-0.14518768737310516759,-0.48429675026569241059,0.50078864227439523482,4.24489413858123931789,5.52623132238302883223,4.79089839297413710995,3.02611320182463838790,0.04800000000000000100,0.07200000000000000844,0.11599999999999999201,0.05999999999999999778,0.08000000000000000167,0.06097067745197168320,0.09292214357937310376,0.14807886754297269749,0.07548028311425683534,0.09868554095045500851,0.17999999999999999334,0.10799999999999999878,0.00800000000000000017,0.06800000000000000488,0.14800000000000002043,0.22937310414560160843,0.13645096056622851854,0.01162790697674418589,0.08710819009100101429,0.18579373104145602280,-0.49198107510956146093,-0.00375195669860118805,0.00880756716483376001,0.02880482910616297826
